0.00482635140195644
 0.04069239993764087
 0.1712221907908396
 0.4911726678827285
 1.102602183115012
 2.093077330535183
 3.522401612998529
 5.41623976699056
 7.765380418082341
 10.52923880384274
 13.64185223905903
 17.01880765888569
 20.56418534396948
 24.17705668657767
 27.7572171800648
 31.21005635926836
 34.45078955638955
 37.40820311114771
 40.02755824123664
 42.27209707130673
 44.12300139276633
 45.57809065177553
 46.64961389829779
 47.36148827836141
 47.74652107019364
 47.84414693227011
 47.69868814663589
 47.35764991946392
 46.86970767899427
 46.28249074015663
 45.6404153648808
 44.98275191810195
 44.34221850261293
 43.7445102084157
 43.20880736163464
 42.74871368953541
 42.3730143452726
 42.08609340396081
 41.88814801861081
 41.77531510444977
 41.73987725457809
 41.77090544912767
 41.85554877613556
 41.9806154733803
 42.13380575666069
 42.30429791713458
 42.48280830081063
 42.66131175359143
 42.8325898796785
 42.98995561156575
 43.12753647927192
 43.2410256389831
 43.32832698039586
 43.38965397171933
 43.42709957021341
 43.44387993109116
 43.44342336263353
 43.42860407896404
 43.40155569453714
 43.36416246461327
 43.31874253043493
 43.26835626403009
 43.21661071881012
 43.16713714581231
 43.12290104391011
 43.08555019856217
 43.05520475670964
 43.03095963648776
 43.01179046663046
 42.99723348562707
 42.98752669355621
 42.98332009055594
 42.98513776477049
 42.99275425599682
 43.00482384113958
 43.01914756288693
 43.03350194761121
 43.04644670848239
 43.05763133498855
 43.06758909738569
 43.07721785784838
 43.08710667537604
 43.09697095701966
 43.10561536970847
 43.11156160405525
 43.11389311956047
 43.11272695107623
 43.10913862243488
 43.10470927020766
 43.10086891566147
 43.09823570026418
 43.09634405969046
 43.09406025733636
 43.09042138979402
 43.08527386122007
 43.07937602655941
 43.0740657362593
 43.07068134916496
 43.0698905664745
 43.07125246231406
 43.07341061175581
 43.0748725947227
 43.07480528294001
 43.07335331719298
 43.07145447190505
 43.07034249874883
 43.07088466449351
 43.07300513651128
 43.0756233494653
 43.07727234573395
 43.07696001297062
 43.07466717806754
 43.07129303430344
 43.06821796684539
 43.06666147928148
 43.06702880566166
 43.06863198631221
 43.07009273504549
 43.07018496043907
 43.06850063023578
 43.06558713339321
 43.06263924254908
 43.0609313714747
 43.06114402459016
 43.06290488489685
 43.06495148594444
 43.06589504489045
 43.06502124705621
 43.06261531567887
 43.05976938668612
 43.05786895832565
 43.05791654425715
 43.05993723078132
 43.06288635235292
 43.06524430236834
 43.06589178002004
 43.06465505838168
 43.06229824688678
 43.06011258699571
 43.05928298849439
 43.06022361216314
 43.06226469412154
 43.06402209285034
 43.06424061852447
 43.0624893785248
 43.05932368835016
 43.05598307193861
 43.05382118052694
 43.05362260657595
 43.05511515301259
 43.05708967512859
 43.05813828115608
 43.05746960667289
 43.05527608155182
 43.05258209152752
 43.0507524735177
 43.05081577354024
 43.0528471036092
 43.05583912472653
 43.0582710570615
 43.0589902280369
 43.05778545083332
 43.0554033838541
 43.05314950701224
 43.05225796265513
 43.05321697427632
 43.05542589862373
 43.05753177243965
 43.05826398081228
 43.05714797255708
 43.05469192031482
 43.05210332721656
 43.05073230749866
 43.05139175195711
 43.05384986641281
 43.05691312216583
 43.05914517303196
 43.05970105840459
 43.05872976535291
 43.05724629852654
 43.05665253142193
 43.05806569887761
 43.06168315135051
 43.06660605252595
 43.0713648627614
 43.07479215639439
 43.07661557971713
 43.07750288896637
 43.07869067857747
 43.08137291427095
 43.08602296238975
 43.09201865650332
 43.09793990671364
 43.10239617834829
 43.10477401615246
 43.10546761410895
 43.10562004922072
 43.10656847009472
 43.10914869381644
 43.11315579426568
 43.1173906204992
 43.12036334231843
 43.12114067792184
 43.11976886406082
 43.1171584365925
 43.11461749399104
 43.11319946079472
 43.11308301171589
 43.11339169509284
 43.11270269627831
 43.10991213778535
 43.1048331512019
 43.09824171206633
 43.09149598430685
 43.08591855481306
 43.08211894539474
 43.07960934825729
 43.07708034808827
 43.07321600347088
 43.06744860278578
 43.06020421331078
 43.05265909925375
 43.04620306380306
 43.04175896507827
 43.03923599956394
 43.03754218399191
 43.03525412455904
 43.03145919218973
 43.02619804628865
 43.02037257053638
 43.01529938133747
 43.01207469412381
 43.01095252303551
 43.01113063418195
 43.01121232630477
 43.01004611274976
 43.00733280484098
 43.00370316594879
 43.00037766142363
 42.99858292856345
 42.99888085191135
 43.00075583418348
 43.00284911552531
 43.00375154170688
 43.00276906776551
 43.00019960999409
 42.99711989972631
 42.99486874236376
 42.99437036737673
 42.99556405991088
 42.99737321096455
 42.99834922829469
 42.99752995213903
 42.99492253012693
 42.99144249289048
 42.9884743501505
 42.98722159514144
 42.98805084731529
 42.99023188953051
 42.99237038462627
 42.99326341151116
 42.99255017973449
 42.99081901908391
 42.98927274642229
 42.98914687125662
 42.99103954762727
 42.99448038238104
 42.99813114182723
 43.00056384299332
 43.00104111229415
 42.99981395933556
 42.99792689834218
 42.99672737045468
 42.99721119167014
 42.99943471531346
 43.00241726731446
 43.0047113194517
 43.00523361572263
 43.00378246384418
 43.00105104811221
 42.99827880660663
 42.99670301189672
 42.9970079447568
 42.99915200543796
 43.00285372136399
 43.00845970709397
 43.01754730732029
 43.03289135873948
 43.05787848410073
 43.09557078326194
 43.14761310042454
 43.21339741827761
 43.29002258594292
 43.37311962100763
 43.45796816879572
 43.54029857030368
 43.61662514450968
 43.68421445730071
 43.74077620241587
 43.78408229389031
 43.81193760033592
 43.82271530027111
 43.81608073825576
 43.79332833477008
 43.75715131190093
 43.71103075789664
 43.65844206489469
 43.60207358463214
 43.54343462042341
 43.4831728290175
 43.42187831016814
 43.36074300996995
 43.30168939809205
 43.2470430841617
 43.19894788669911
 43.15868061290772
 43.1261806383747
 43.10020742664025
 43.07912299249553
 43.06174228055081
 43.04772669115464
 43.03746171953485
 43.03160476704425
 43.03045276725359
 43.03336744819231
 43.0386842397246
 43.0443094800801
 43.04861204946602
 43.05099159204941
 43.05188686590539
 43.05237110887837
 43.05351604500672
 43.05570978412046
 43.0583061278582
 43.05995462705869
 43.05943016061475
 43.05634260920985
 43.05131904001679
 43.04571171697103
 43.04102601396335
 43.03822328262156
 43.0372036039531
 43.03688702259566
 43.03593094607991
 43.03356010978102
 43.02996361417078
 43.02616071070597
 43.02351752259558
 43.02307949467384
 43.02495439346798
 43.02816478590707
 43.03119488028566
 43.03286727409969
 43.03292978986011
 43.03209087729195
 43.03163766445449
 43.03281857168246
 43.0361664133264
 43.04112462590283
 43.04634073970723
 43.0504870579289
 43.05300035530436
 43.05430392894992
 43.05554624018672
 43.05805462014326
 43.06265278694272
 43.06912925587437
 43.07628635302298
 43.08264398845225
 43.08728563364808
 43.09028065408476
 43.09256899859116
 43.09549012158614
 43.10012002864305
 43.10663972619852
 43.11415021911331
 43.1211827227926
 43.12656450732106
 43.13001604201095
 43.13220313076949
 43.13437521694208
 43.13776669749078
 43.1429200340996
 43.14928870549203
 43.15550985748877
 43.16023266400439
 43.16288669873642
 43.16392592297158
 43.1645681053616
 43.16623850261809
 43.16988137317049
 43.17541941138349
 43.18177799881002
 43.18756433930478
 43.19191098785324
 43.19490796844535
 43.19749237968455
 43.20098378310653
 43.20643611518578
 43.21401325663559
 43.22278921295172
 43.23123927471721
 43.23810925123879
 43.24303560495142
 43.24661655020962
 43.25005354663829
 43.25454744577929
 43.26061592161193
 43.26768600320776
 43.27435023323434
 43.27918682697045
 43.28153838476281
 43.281776796375
 43.28106394318096
 43.28081108105594
 43.28198919612751
 43.28456128444234
 43.28746704209922
 43.28928188074419
 43.28907562018585
 43.28687798131349
 43.28359396062434
 43.28055081280806
 43.27885264359912
 43.27874276440024
 43.27936789123669
 43.2792349214208
 43.27708096442956
 43.27252441855742
 43.2661639103987
 43.25923119074861
 43.25299423698731
 43.24807545734592
 43.244018843328
 43.23950178645358
 43.23313100345317
 43.22423616627203
 43.21316849401461
 43.20108676882477
 43.18942792512153
 43.17922084025588
 43.17050777188407
 43.16229710689569
 43.15319493102675
 43.14227515769996
 43.12958834161292
 43.1161153726883
 43.10332590129248
 43.09251908673198
 43.08415255697118
 43.07755828374977
 43.07135693370316
 43.0643223876238
 43.05606475841586
 43.04716752194685
 43.03886645529173
 43.03246974771022
 43.02867720442459
 43.0271135290979
 43.02648157359501
 43.02532287165043
 43.02282677615787
 43.01917015612295
 43.01533873734689
 43.0126259831396
 43.01196589198593
 43.01334241638047
 43.0156977160508
 43.01752306705867
 43.01772179567188
 43.01613894884672
 43.01354761642496
 43.01124530973797
 43.0104291473459
 43.01153309790846
 43.01391186973611
 43.01620602308088
 43.0171819484256
 43.01642868591792
 43.01452238438147
 43.01271948940796
 43.01237626147163
 43.01425908264785
 43.01805827797249
 43.02251576461361
 43.02617164199735
 43.02818004572499
 43.02866770241404
 43.02857476539871
 43.02916866042023
 43.03138373265914
 43.03522169446376
 43.03963682075406
 43.04311444247688
 43.04455120597515
 43.04381301040936
 43.04172995391241
 43.03968205697581
 43.03896467444895
 43.04011593512203
 43.04257318545587
 43.04500182373779
 43.04612359774514
 43.04543620555767
 43.04341366249525
 43.04123141546396
 43.04020955865747
 43.04112960149164
 43.043726896524
 43.04677952782139
 43.0488302808557
 43.04901215036757
 43.0474384241242
 43.04506952820075
 43.04323438042038
 43.04296449592168
 43.04437869768442
 43.04653839497297
 43.04799310012965
 43.04764807937476
 43.04533623656581
 43.04183796724445
 43.03848817156383
 43.03655553304218
 43.03656983775356
 43.03795663500002
 43.03933851522165
 43.03936164634701
 43.03744343739169
 43.03400360451187
 43.03020580919742
 43.02740760572247
 43.02647107792186
 43.02722230169575
 43.0284935712582
 43.02883038320826
 43.02734796501105
 43.02415810613804
 43.02024769963779
 43.01699929112812
 43.01552473465313
 43.01603293449452
 43.01764260541971
 43.01889420451131
 43.01862728463704
 43.01658973033901
 43.01348827524049
 43.01061235506764
 43.00922444748797
 43.00988410231861
 43.01205125128566
 43.01434821399418
 43.01537728743136
 43.0144922274504
 43.01205817223543
 43.00921161030247
 43.00731956266579
 43.00728903883643
 43.00900565296321
 43.01133805203173
 43.01281812634107
 43.0125059325804
 43.01044843109165
 43.00758630340257
 43.00529134491798
 43.00470734714351
 43.00610535033457
 43.00865951537484
 43.0109206387572
 43.01168381944179
 43.01062076455536
 43.00836665965845
 43.00617490571001
 43.00532142417798
 43.00641883735201
 43.00898832034488
 43.0116857521579
 43.01310462238283
 43.01256248826773
 43.01038643483821
 43.00768966922185
 43.00583957630744
 43.00577255463342
 43.00742427071506
 43.00970734401526
 43.01116638779795
 43.01084058077619
 43.00874057396058
 43.00577713221466
 43.00331220593439
 43.00250403926702
 43.00365625236537
 43.00597526371902
 43.00802521313639
 43.00859555002358
 43.00734756850677
 43.00490884021924
 43.00252792551579
 43.00148840601742
 43.00243719276407
 43.00494705012227
 43.00770799253065
 43.0093021191366
 43.00899273554028
 43.00703711156535
 43.00449300687388
 43.00270484652687
 43.0026223845654
 43.00421504063176
 43.00641427982394
 43.00774141627466
 43.00717783815274
 43.00467199801813
 43.00109400365079
 42.99780551892558
 42.99601821637506
 42.99613141106777
 42.99744158067733
 42.99854490396919
 42.99819482829516
 42.99598689960579
 42.99250380047764
 42.9889991739952
 42.98681440146793
 42.98669193211016
 42.98830666086563
 42.99041978193762
 42.99163836902115
 42.9912210731526
 42.98941201100975
 42.9872552607949
 42.98609068679956
 42.98689011873839
 42.98967113635685
 42.99340653791281
 42.99662041535207
 42.99826363840104
 42.99824991689303
 42.99743119076175
 42.99717455256482
 42.99872309710015
 43.00252431669923
 43.0079075063006
 43.01345082911494
 43.01783210703039
 43.02053352683194
 43.02201080519038
 43.02339918932837
 43.02595027187432
 43.0303509098081
 43.03623563267941
 43.04231026928611
 43.04709876119279
 43.0497662248787
 43.05048580296912
 43.05027672610498
 43.05049787122276
 43.05215921036258
 43.05530386943354
 43.05889106214054
 43.06138029307583
 43.06161651736902
 43.05939342950352
 43.05546066046043
 43.05112715924507
 43.04764023468245
 43.04551686624275
 43.04419789895274
 43.04237506630042
 43.03881715037095
 43.03308409503871
 43.02572491624751
 43.01800870387932
 43.01137164503051
 43.00672363423745
 43.0039228109791
 43.00185324101511
 42.99914554916964
 42.99500229908503
 42.98958184166147
 42.98385894625961
 42.97915178068091
 42.97646961971817
 42.97590320621374
 42.97647427736572
 42.97667427042664
 42.97533166888116
 42.97219275205045
 42.96795977337628
 42.96391801529322
 42.96132275985308
 42.96071554370597
 42.96153915032102
 42.96242793523991
 42.9620375641523
 42.95980085663923
 42.95616318164306
 42.95232053862077
 42.9496576365471
 42.94904868121488
 42.95032153619776
 42.95231013729517
 42.95355512278794
 42.95314176697802
 42.95112481251219
 42.94843013684012
 42.94640157650947
 42.94614342371189
 42.94788003662531
 42.95075520009561
 42.9533331101442
 42.95446974599659
 42.95392147426271
 42.95239727410601
 42.95118260356963
 42.95152834006444
 42.95397587543436
 42.95796437680712
 42.96209419036156
 42.96494107263513
 42.9658253847364
 42.96507430095492
 42.9637859390948
 42.96329452888777
 42.96448877732171
 42.96725507733942
 42.97047441540025
 42.97269092339997
 42.97297644280118
 42.97140114261107
 42.96894955880186
 42.96704923607865
 42.96688259621757
 42.96870831823893
 42.97162250359456
 42.97405010687162
 42.97465936475938
 42.97306482964376
 42.97001043561045
 42.96713814257877
 42.96649923705863
 42.96993639162844
 42.9786542056949
 42.99335283062491
 43.01483732086701
 43.04451144456203
 43.08428216382522
 43.13590926156349
 43.20011209564395
 43.27573706408001
 43.35933465695256
 43.44553725657799
 43.52825134804847
 43.60206887846921
 43.66320362143755
 43.70972789016155
 43.74126221643194
 43.75830691745831
 43.76146278890134
 43.75099080487542
 43.72704686068349
 43.69034803379431
 43.64266391399224
 43.58680673732741
 43.52621354100374
 43.4642928738804
 43.40368044130232
 43.34573341515288
 43.29067381980175
 43.23834170750578
 43.1889794625773
 43.14354315073263
 43.10351065911205
 43.07038061138468
 43.04501810455865
 43.02710611460957
 43.01512601568087
 43.00702076564703
 43.00110396200991
 42.99661278501507
 42.99370672411637
 42.99306797677242
 42.99527777987872
 43.00016968449543
 43.00655405364649
 43.01262724383136
 43.01682706831477
 43.01851417906015
 43.01811596603055
 43.01681058311718
 43.01594061558456
 43.01631416110472
 43.01771887103502
 43.01906352341545
 43.01912952219131
 43.01736336189021
 43.01419150651045
 43.01081987178885
 43.00872340559114
 43.00897901816659
 43.01167475936318
 43.01581469644778
 43.01991046608245
 43.02285366041616
 43.02445652469979
 43.02544059946443
 43.02702836780232
 43.03031790823981
 43.03562559563706
 43.04217260419957
 43.04845215782891
 43.05308250060557
 43.05552510870486
 43.0562682366274
 43.05653274604812
 43.05769325892553
 43.06057503370269
 43.06494596075346
 43.06962583198637
 43.07322607652133
 43.07496983542984
 43.07505717679528
 43.07450888052089
 43.07468052306813
 43.0765999243642
 43.08035902837808
 43.08498432537105
 43.08900339783763
 43.09132431594787
 43.09180283808578
 43.09125080189416
 43.09103394099361
 43.09244191401731
 43.09600844083899
 43.10115368727893
 43.10650563375891
 43.11073618357542
 43.11329893436734
 43.11464409151295
 43.11594469351381
 43.11852904127093
 43.12318452927063
 43.12964418938812
 43.13667889373886
 43.14282987898353
 43.14724492011512
 43.15006702749623
 43.15228855445939
 43.15526417339346
 43.16004477985835
 43.16675645669496
 43.17444044851836
 43.18158999638514
 43.18702830084433
 43.19050085216831
 43.19271200903759
 43.19494316934589
 43.19843816009875
 43.20372705262595
 43.2102506600948
 43.21665667192869
 43.22162774118898
 43.22462784736537
 43.226124178993
 43.22731259757121
 43.22954987380983
 43.2336595583052
 43.23940906896617
 43.2455747339088
 43.2506502541329
 43.25368845629627
 43.25472468315869
 43.25466902954142
 43.25484204723075
 43.25631630622162
 43.25928405101913
 43.26285883456104
 43.26556796342098
 43.26621892505103
 43.26451912953134
 43.26114654061324
 43.25738132000009
 43.25448698664083
 43.2530227336606
 43.25244610890524
 43.25138249583218
 43.2484476105917
 43.24302019429521
 43.23550066191362
 43.22706242515407
 43.21909889120965
 43.2125308512201
 43.20725444499276
 43.20215387828839
 43.19578326759743
 43.1872317365106
 43.17658423048264
 43.16482953851365
 43.15339827214903
 43.1435088803895
 43.13552721730206
 43.12873115343829
 43.12176003508456
 43.11346894714279
 43.10356877252856
 43.0927262900768
 43.08222528817763
 43.0733773172101
 43.06684408620042
 43.06220580782721
 43.05816974266436
 43.05335903055188
 43.04710193399013
 43.03973105360655
 43.03237190584635
 43.02641808950402
 43.02284848072354
 43.02164538252941
 43.02174383095957
 43.02166598629529
 43.02039089634474
 43.0178533731517
 43.01488822433766
 43.01279108480691
 43.01267496765966
 43.01482306056362
 43.0184279505131
 43.02201626696914
 43.02430166385926
 43.02484598404864
 43.02418487694747
 43.02350566071132
 43.02406277996226
 43.02649225081769
 43.03035943562249
 43.03434474567035
 43.03702473883755
 43.03767285016399
 43.03657748994593
 43.0348446229238
 43.0338768665852
 43.03468471472067
 43.03728953537365
 43.04065145978905
 43.04328972758811
 43.04416023644643
 43.04317957889926
 43.04119538161877
 43.03956311911092
 43.03950131174204
 43.041420300504
 43.04462272775751
 43.04769893760687
 43.04937953802759
 43.04921824857765
 43.04774054714208
 43.04613686515575
 43.04568761038762
 43.04707736598826
 43.04992381338377
 43.05293319993122
 43.05466573944038
 43.05434845897612
 43.05221855838495
 43.04934829925075
 43.04714190688109
 43.04665434999463
 43.04797678138096
 43.05012508021182
 43.05162882980321
 43.05140988992166
 43.0493343726978
 43.04621386814159
 43.0433996052981
 43.04214068234142
 43.04289971989368
 43.04501983545727
 43.04708612279595
 43.04777903009973
 43.04659364554657
 43.04402476715018
 43.04127542958553
 43.03968453640694
 43.04003258978118
 43.04203754330916
 43.04446340070542
 43.04586464094485
 43.04541943831578
 43.04330613136344
 43.0405449469958
 43.03850119762398
 43.03821729007752
 43.0398033239513
 43.042298068534
 43.04422294680568
 43.04445947600239
 43.04282231375373
 43.04007170201951
 43.0375135710139
 43.03637525857214
 43.03713392589328
 43.039162733555
 43.0410517695382
 43.04144655305395
 43.03979051657372
 43.0365424572876
 43.03290399545427
 43.03025485344825
 43.02945899893066
 43.03034322911402
 43.03176551202428
 43.0323209464929
 43.03117015396537
 43.02844325531584
 43.02511629553301
 43.02253864430334
 43.02177180171834
 43.02296614161416
 43.02519285215588
 43.02697169607801
 43.02714360034729
 43.02546279389104
 43.02263833677709
 43.01995846037041
 43.01867794696773
 43.01933803477808
 43.02138059972199
 43.02343028976771
 43.02411598297024
 43.02282783412624
 43.01996472068527
 43.01668924126044
 43.01438154903752
 43.01394731114262
 43.01527033677754
 43.01723901281659
 43.01843245497263
 43.01796873789534
 43.01594315001493
 43.01332452469858
 43.01148638320161
 43.01154107445033
 43.01369914788275
 43.01706853501852
 43.02015384731745
 43.02172948792264
 43.02145873580922
 43.01996464657889
 43.0184730152936
 43.01821219180192
 43.01973693419352
 43.02252382083903
 43.02521796903915
 43.02643395588927
 43.02552220779361
 43.02283855652716
 43.01951586703038
 43.01692871442646
 43.01600635082312
 43.01667240359064
 43.0178414932405
 43.01808671268464
 43.0164999113773
 43.01315832506249
 43.00904158853378
 43.00557071204514
 43.00394435945842
 43.0044901496958
 43.00643404336155
 43.00836171485774
 43.00907783161976
 43.00824142974085
 43.00645975692431
 43.00494673783935
 43.00493461344593
 43.00700031216876
 43.01063959707907
 43.01448191570783
 43.01708569029144
 43.01773176032235
 43.0167227434513
 43.01517181622497
 43.01448216798292
 43.01567101666748
 43.01879166510919
 43.0228756667766
 43.02654816551218
 43.02887877688738
 43.02987125411713
 43.03040617915726
 43.03180364445666
 43.03518312882598
 43.04081835034864
 43.04787528603214
 43.05483517230302
 43.0603491604415
 43.06390356054949
 43.06595256523188
 43.06761168382187
 43.07009314438991
 43.07402793797012
 43.07900153732766
 43.08372029128301
 43.08677998964605
 43.087460872885
 43.08604208858668
 43.08360693790232
 43.08153579578723
 43.08083293753285
 43.08153115691321
 43.08260525132722
 43.08257579818946
 43.08038104131535
 43.0759080107329
 43.06997745589943
 43.06393749815079
 43.05903257604193
 43.05573346303851
 43.05342225687678
 43.05077001518941
 43.04658738483948
 43.04051714581109
 43.03318738913281
 43.02590068665788
 43.02005270162899
 43.01643705609733
 43.01475842266719
 43.01376942926491
 43.01202495167461
 43.00869911811772
 43.00394457815892
 42.99873297825691
 42.99436362019845
 42.99179866982075
 42.99106774345286
 42.99116241435021
 42.99061505915373
 42.98836240469141
 42.98428207650731
 42.97917999172253
 42.97438201374668
 42.97110671649105
 42.96980128784074
 42.96981706863052
 42.96976600441693
 42.96836650667499
 42.96515792058089
 42.96068089114267
 42.95618080084027
 42.95303418925722
 42.95206059276411
 42.95302489410045
 42.95473846915363
 42.9557832256607
 42.95533215267241
 42.95353215025535
 42.95136176419936
 42.95014633756054
 42.95089132516323
 42.95366924048662
 42.95748113880695
 42.96081199129822
 42.96250637789951
 42.96234503578081
 42.96106892144417
 42.95998805033699
 42.96035671558723
 42.96269548617864
 42.96642593270496
 42.97017636116927
 42.97261046193777
 42.9731688217401
 42.97228682106771
 42.97112167147599
 42.97099083435602
 42.97268398544482
 42.9759471575787
 42.97956110139985
 42.98206483943513
 42.98259683833509
 42.98129144769526
 42.97912880696227
 42.97743484525854
 42.9772129085743
 42.97854006044601
 42.98043558840086
 42.98144324878748
 42.98059695545571
 42.97814356798956
 42.97570246256032
 42.9759353645082
 42.98188460655405
 42.99615883878477
 43.02033816265453
 43.05497511393795
 43.10006592103483
 43.15541803554579
 43.22057067569724
 43.29443619264388
 43.37493504293165
 43.4587228141037
 43.54116497395236
 43.61687039828684
 43.68079764973709
 43.72938875180247
 43.76113114793958
 43.77642839369901
 43.77700261000634
 43.76504470812459
 43.74236747956733
 43.71000432302557
 43.66854293486085
 43.61888141279662
 43.56276889895749
 43.50282049191223
 43.44211862100903
 43.38357731105063
 43.32922596645645
 43.27976266873147
 43.23477456496465
 43.19354126264566
 43.15582347031615
 43.1221552445015
 43.09363424721629
 43.07141037406096
 43.05603047963192
 43.04690843450582
 43.04234620691145
 43.04022978409115
 43.03892977457898
 43.03781204098942
 43.03719298952471
 43.03791062085319
 43.04068021320107
 43.04544142830994
 43.05110751738166
 43.05601301557499
 43.05877613600177
 43.05894513136377
 43.05709916029002
 43.05450509214854
 43.05251615668269
 43.05187511517914
 43.05226566500762
 43.05251251960004
 43.0513649853821
 43.04827974475538
 43.04371574822103
 43.0389202755908
 43.03539836907766
 43.03422373320726
 43.03545525126459
 43.03808504652515
 43.04066845666514
 43.04219348815565
 43.04258803915267
 43.04267347781924
 43.04372859862733
 43.04684407130299
 43.05226970652186
 43.05914713196674
 43.06593523630346
 43.0712775168542
 43.07468316661977
 43.07666294729987
 43.07840434149527
 43.08118123418238
 43.08566316666538
 43.09145031310213
 43.09724056627318
 43.10160437645158
 43.10379848859764
 43.10410163330618
 43.1036286885515
 43.10381949565262
 43.1057552626595
 43.10954700382828
 43.11422925885581
 43.11835252232091
 43.12086059742961
 43.12163588003386
 43.12149108046155
 43.12175720067622
 43.12364593007828
 43.12758252448424
 43.13289630869723
 43.13819700621282
 43.14222211902522
 43.14453318530192
 43.14567821647397
 43.14688790354543
 43.14949683087945
 43.15425127751896
 43.16082666763596
 43.16796649233048
 43.17423523391108
 43.17882982724199
 43.1819290378365
 43.18452556045575
 43.18793169167826
 43.19311242302121
 43.20008502778226
 43.20780900898276
 43.21476716395625
 43.21984001656636
 43.2228544615556
 43.22457725281279
 43.22631086850612
 43.22927219350697
 43.23392775919602
 43.23965635263085
 43.24508985610148
 43.24895209750082
 43.25077397796876
 43.25107813771433
 43.25109021860099
 43.25217132874101
 43.25512626563054
 43.25969724746838
 43.26466506846115
 43.26858259581039
 43.27060082027716
 43.2708504242055
 43.27030154591848
 43.27028537092134
 43.27182889348016
 43.27503208683096
 43.27891338412063
 43.28195605206644
 43.28298813631632
 43.28176878085465
 43.27901772970211
 43.27602276732866
 43.27400815668687
 43.27344898818168
 43.27370723021738
 43.27335138203974
 43.27100023518101
 43.26607119047268
 43.2590003007949
 43.25097134774741
 43.24335633679036
 43.23702751076905
 43.23183267779947
 43.22665203508126
 43.22009889744909
 43.21135465494707
 43.20058188241491
 43.18880766141609
 43.17745889264369
 43.16770773009502
 43.15984296470902
 43.15307915517176
 43.14605668084554
 43.13770134659208
 43.12782146181805
 43.11716138780773
 43.10704020412521
 43.09875514386683
 43.092909054666
 43.08901253398038
 43.08574295330141
 43.08175205892681
 43.07642235263501
 43.07011698664737
 43.06393957887864
 43.05920180978427
 43.05674948074699
 43.05642093877814
 43.05706127591212
 43.05719546081208
 43.05587868195956
 43.0531461384199
 43.0499184840472
 43.04753923514573
 43.04711577726826
 43.04887999135156
 43.05197429733051
 43.05493121448144
 43.05654002246658
 43.05647691249694
 43.05538880555016
 43.05454032928785
 43.05520947875667
 43.05799909635162
 43.06241343723409
 43.06709136194896
 43.07061183497152
 43.07227897987075
 43.07240640026463
 43.07209059533057
 43.07267134008416
 43.07504273449931
 43.07909173290559
 43.08368984924082
 43.0873579011058
 43.08913034768879
 43.08902337228201
 43.08794808981166
 43.08725371941169
 43.08807753727847
 43.09070033300261
 43.09430308511957
 43.09741848789039
 43.09879948989394
 43.09807396292397
 43.09585329947085
 43.09339717797143
 43.09202191680449
 43.09241326648325
 43.09418061866213
 43.09605151530141
 43.09665176861741
 43.09529442502986
 43.0922873609391
 43.0887364218634
 43.08603366356381
 43.08517760976358
 43.08618305972856
 43.08801571020478
 43.08921260529679
 43.08874523921956
 43.08652293752594
 43.08335272204033
 43.08052091178747
 43.07916268933946
 43.07960822590262
 43.08109851494428
 43.08219035066727
 43.08161305054419
 43.07895424766691
 43.07481030533458
 43.07047430207019
 43.06734674550763
 43.06623232327576
 43.06685580199351
 43.06801086170041
 43.0683210995314
 43.06704707930518
 43.06442399776728
 43.06148316283158
 43.0595485716114
 43.05956331270453
 43.0614952313798
 43.06425118490424
 43.06628386710337
 43.06647394391811
 43.06467185030951
 43.06168269792901
 43.05885204722641
 43.05742731753206
 43.05787682483113
 43.05955531936372
 43.06106398443983
 43.06110060761451
 43.05917178076822
 43.05577634973515
 43.05212274678846
 43.04956438096976
 43.04890499753809
 43.04989557536326
 43.05134791268677
 43.05187476540903
 43.05070760289296
 43.04806277812227
 43.04498693662141
 43.04286565291179
 43.0427481395007
 43.04472740174879
 43.04780680996218
 43.05046788077532
 43.05155063451262
 43.05082438233614
 43.04900684133141
 43.04737576850319
 43.04714859905551
 43.04880415048638
 43.05172046598387
 43.05449353868206
 43.05577581576605
 43.05501461483641
 43.05266345114934
 43.04990808601426
 43.04810578422267
 43.04809348697278
 43.04966723316696
 43.05166182915453
 43.05267526133395
 43.05190226579347
 43.04952480114116
 43.04657086069498
 43.04442974298936
 43.04418278103403
 43.04597820691653
 43.04887207946292
 43.05136891781489
 43.0522985222438
 43.05140225120753
 43.04936638475755
 43.04744081173424
 43.04682611802837
 43.0480057312529
 43.05038430137162
 43.05258885098648
 43.05328843785265
 43.0519315466973
 43.04897092256843
 43.04560303964141
 43.0432151366431
 43.04269726093343
 43.04391124634103
 43.04573603587991
 43.04675856453502
 43.04610908367405
 43.04388442043276
 43.0410409065099
 43.03893166420529
 43.03865027191028
 43.04040134809072
 43.04330831264668
 43.045912790576
 43.04704052174039
 43.04640988926871
 43.04469025212746
 43.04313362184418
 43.04297141176412
 43.04474679139042
 43.04792413324456
 43.05114602197025
 43.05303718554055
 43.05296802138687
 43.05131750590896
 43.04923641895
 43.04810249489231
 43.04882372984307
 43.05127523949186
 43.05430542587286
 43.05641845151109
 43.0566445839123
 43.05501116365355
 43.05246420373862
 43.05041394611968
 43.05007355977147
 43.05180475116613
 43.05487858162349
 43.05793173985599
 43.05982188243334
 43.06025447841735
 43.05986803070704
 43.05989212932646
 43.06156302820435
 43.06545206221139
 43.07104337315421
 43.07695380392669
 43.08172736594895
 43.08462471610389
 43.08592383390035
 43.08670837903903
 43.08833217206207
 43.09172078860144
 43.09678814441406
 43.10240238732389
 43.10703354029482
 43.10961710628754
 43.11004118314644
 43.10909397918492
 43.10803931191322
 43.1079791250768
 43.10919838307213
 43.11089833763911
 43.11162621709699
 43.11013536979379
 43.10604794936315
 43.09997908045654
 43.0932153546017
 43.08713116884348
 43.08249585996533
 43.0790046369068
 43.07544913099706
 43.07049469223632
 43.06348616947211
 43.05477068047676
 43.04550073842312
 43.03711606163803
 43.03066438788525
 43.02621324144268
 43.0227740267705
 43.01890648961327
 43.01358316805254
 43.00671438144642
 42.99912717832233
 42.99214881855665
 42.98696844381609
 42.98397183701236
 42.9824392589037
 42.98093277731792
 42.97815169002349
 42.97363265835609
 42.96791301849573
 42.96222406113715
 42.957909350819
 42.95573390739695
 42.955403301164
 42.95569775311788
 42.95521491493019
 42.95317493730804
 42.9497726023591
 42.94601828347168
 42.94325277764377
 42.94248431064287
 42.94378212240875
 42.94614882619458
 42.9480803689882
 42.94843413640275
 42.94699452157352
 42.9444916871528
 42.94221096354129
 42.94137070284014
 42.94245362322793
 42.94486715640507
 42.94727646811366
 42.94842813713282
 42.94785345402756
 42.9460516675533
 42.94420692948199
 42.94363020261156
 42.94507762483658
 42.94824897692499
 42.9518864311698
 42.95450482795032
 42.95522062709721
 42.95414035646839
 42.95222268581978
 42.95079545938289
 42.95088709889506
 42.95261397804974
 42.95505131933681
 42.95679888846593
 42.95684747096064
 42.95511549698978
 42.95241662617604
 42.95003181707045
 42.9490984985872
 42.94999349267034
 42.95205146527074
 42.95396687170185
 42.9547298463968
 42.95447140168587
 42.95475285697764
 42.95829985170544
 42.96835829809272
 42.98782730465126
 43.0184776548216
 43.06069052744023
 43.11379096176637
 43.17652923747531
 43.24728663839176
 43.32401007393823
 43.40406101906994
 43.4840438312332
 43.55971124711277
 43.62626452560124
 43.67922799643188
 43.71551297149178
 43.73404036786739
 43.73567744101313
 43.72267040824927
 43.69781082297767
 43.66355063500554
 43.62144704881148
 43.57231528037459
 43.51695937081833
 43.45686370502887
 43.39438094921329
 43.33242851190034
 43.27389535587347
 43.22092391535006
 43.17435481532505
 43.13375405111627
 43.09810386545306
 43.06666256599257
 43.03942728228689
 43.01707133872166
 43.00052857032246
 42.9903793336982
 42.98624547375577
 42.9866066715222
 42.98931641575449
 42.99250876959118
 42.9952585917675
 42.99767785731311
 43.00056349355477
 43.00479587183911
 43.01066526677597
 43.0174691773669
 43.02375461941135
 43.02811135149857
 43.02992854046202
 43.02964888214956
 43.02852051918906
 43.02804404980773
 43.02927321296494
 43.03224421144235
 43.0359586845495
 43.03903878534978
 43.04058427962588
 43.04064026808882
 43.04011459288107
 43.04032733005531
 43.04237100763823
 43.04648038039864
 43.05180298872119
 43.05685668323154
 43.06039284670513
 43.06203945170739
 43.06239727773475
 43.06269380805787
 43.06418797768055
 43.067492354903
 43.07214515673947
 43.07682064679941
 43.08011729891467
 43.08134520836159
 43.08082381725195
 43.07967251502093
 43.07929120228003
 43.0806833215071
 43.0838757980368
 43.08785986790652
 43.09121157745977
 43.09295787749949
 43.09308447440419
 43.09248822394181
 43.09253766577447
 43.094423044668
 43.09849784676996
 43.10400541032087
 43.10949954932668
 43.11370859062401
 43.11621559563488
 43.11759609408488
 43.11909383890384
 43.12202656951897
 43.12709264129371
 43.13391284811435
 43.14120783937509
 43.14757226047617
 43.15227544951307
 43.15558295400601
 43.15856154961801
 43.16256355402849
 43.16854921709274
 43.1765003969382
 43.18534957691762
 43.19359068085357
 43.20014307784292
 43.20486693128161
 43.2085346315748
 43.21241779515979
 43.21765924527214
 43.22461651480202
 43.23256301792778
 43.24007430320926
 43.24587787048129
 43.24954136208275
 43.25162192901966
 43.25335120559557
 43.25605216926196
 43.26045161253175
 43.2662072789947
 43.27205201956301
 43.27654257780366
 43.27886588572873
 43.27919302234289
 43.27852403504161
 43.27820357786919
 43.27925253038723
 43.28175636600713
 43.28474431622
 43.28676772125503
 43.28678059893771
 43.28469876061385
 43.28139575782151
 43.27828065024186
 43.27664512593483
 43.27697983567439
 43.27864414226062
 43.28022322878525
 43.28037273206819
 43.27853333672621
 43.27512020623123
 43.27124255132887
 43.2681449359532
 43.26652940024097
 43.26606220118284
 43.26547329350601
 43.26327969637973
 43.25861107616165
 43.25159814014335
 43.24323216867793
 43.23488023033121
 43.22761752977175
 43.22160903256478
 43.21596201585405
 43.20927515491871
 43.20051125683274
 43.1895689552823
 43.17730179511774
 43.16512806547651
 43.1544080939787
 43.14576004881717
 43.13868686458497
 43.13188576554505
 43.1240889504913
 43.11481500339418
 43.10459256135712
 43.09468762613847
 43.08653336931779
 43.08102562388994
 43.07798597767328
 43.07622085676521
 43.07423989525827
 43.07111356792647
 43.06690103602716
 43.06253359033573
 43.05933894930197
 43.05837356631565
 43.05978612947298
 43.06263041480558
 43.06538345933775
 43.06682904762923
 43.06666875019466
 43.06557032981095
 43.06478569662125
 43.06553218186307
 43.06831255826774
 43.07252968707271
 43.07676816903723
 43.07962137742603
 43.08045974810545
 43.07968581825715
 43.07848786762975
 43.0782841195723
 43.08001633959887
 43.08358795085145
 43.08787782606767
 43.09141893153032
 43.09325208636459
 43.09338479262064
 43.09271166081893
 43.09255934768938
 43.09402139508556
 43.0973094729462
 43.1015403102095
 43.10522694508595
 43.10715410105519
 43.10700501620354
 43.10543942031583
 43.10374287389
 43.10322922900402
 43.10455470343371
 43.10729101449198
 43.11015409918512
 43.1118059189066
 43.11163232048478
 43.11001802394677
 43.10811651378644
 43.10731308095148
 43.10853540033714
 43.11168448653429
 43.11561927923457
 43.11882232354648
 43.12027442334961
 43.11994044574494
 43.11870066202795
 43.11790282633088
 43.11870986341953
 43.12144530017915
 43.12533308024612
 43.12893112639772
 43.13099244846062
 43.13112374535085
 43.12989845986312
 43.12852324487886
 43.12825046673797
 43.1296960773664
 43.13239585640094
 43.13500431252091
 43.1360871652716
 43.13492441298413
 43.13182272239875
 43.12791169076427
 43.12462213917811
 43.12300251320622
 43.12312839687898
 43.12403065077199
 43.12430585832625
 43.12297973229786
 43.12002213057293
 43.11631427477701
 43.11322204534665
 43.11194768571846
 43.11286219528198
 43.11521674729277
 43.11754986370297
 43.11854774354128
 43.11772815030194
 43.11558521950102
 43.11328146083422
 43.11207817630186
 43.11265712192338
 43.11465278578148
 43.11680547009073
 43.11772125298138
 43.11667946144452
 43.11396904426083
 43.11070013910629
 43.10828377524224
 43.10774263050202
 43.10910764704697
 43.11133141526651
 43.11290171452337
 43.11273019173191
 43.1106916724797
 43.10760275634755
 43.10480769737304
 43.10354464745657
 43.10426828201821
 43.10631733513093
 43.10827671801554
 43.10883113308652
 43.10747897553533
 43.10470832071103
 43.10169964194214
 43.09975429689875
 43.09960833717663
 43.10094359305723
 43.10251103783851
 43.10287734101555
 43.10124913637294
 43.09784347152523
 43.09372998131006
 43.09032991493762
 43.0887351881753
 43.08909169436007
 43.09046923129966
 43.09142612439383
 43.09088249793486
 43.08868237780821
 43.08560331572137
 43.08295905961856
 43.08197195314557
 43.08309506818494
 43.08566387016397
 43.08823480952366
 43.08943632048973
 43.08870891214018
 43.08651186814539
 43.08404081885166
 43.08265723810698
 43.08319233917139
 43.0854292183101
 43.08818463628914
 43.09003040013834
 43.09012127090234
 43.08858162860046
 43.08636796543134
 43.08479729220246
 43.08489465694246
 43.08678060960186
 43.08951544125404
 43.09163397342791
 43.09201501867496
 43.09046511686604
 43.08775017362763
 43.08520885085671
 43.0841323326648
 43.08508396858315
 43.08751700713059
 43.09005927441838
 43.09133529797739
 43.09072069624793
 43.08858445620067
 43.0860438625282
 43.08442766614274
 43.08459574888205
 43.08639902070517
 43.0887098963265
 43.09010727277296
 43.08971404139863
 43.08762302412119
 43.08479219529009
 43.08258484077567
 43.08211180802391
 43.08359357200531
 43.08616056683286
 43.08835469435434
 43.08900317167061
 43.08783352817392
 43.08553637876918
 43.08339991116337
 43.08270140867467
 43.08402257691688
 43.08684234262081
 43.08979296411817
 43.09147662050425
 43.0912412975278
 43.08944835177276
 43.0872348755769
 43.08596815854434
 43.08655165835437
 43.08886247933732
 43.09175095188454
 43.0937173246457
 43.09378488866679
 43.09197448125359
 43.0892211464294
 43.08691242074213
 43.08622599861568
 43.08747824535959
 43.08989358146887
 43.09208012306098
 43.09290588316782
 43.09213389163502
 43.09049874093294
 43.08934241806257
 43.09000267480278
 43.09311928511392
 43.09820137510914
 43.10385167703847
 43.10857803033574
 43.11160085865432
 43.11315904354208
 43.11429280129556
 43.11630655420039
 43.1200799749154
 43.12550062939071
 43.13144277461319
 43.13641873914516
 43.13944078578729
 43.14050309546843
 43.14051505208439
 43.14085354663081
 43.14270428046795
 43.14639762101184
 43.1511448892975
 43.15547494336391
 43.15809732252789
 43.15856069584726
 43.15736844970252
 43.15565365629384
 43.15460734203001
 43.15481631548965
 43.15583123736339
 43.15635882480911
 43.155036594419
 43.15122142985074
 43.14529365537309
 43.13844846805345
 43.13217342035338
 43.12756731159067
 43.12474940131574
 43.12277961175538
 43.12026082007344
 43.11620677964235
 43.11057067667066
 43.10421985818079
 43.09851088736708
 43.0946456538267
 43.09300429312343
 43.09284560950546
 43.09270245427249
 43.09124490741359
 43.08798072096258
 43.08341417669985
 43.07873933090688
 43.07526562064841
 43.07373555928938
 43.07384659803145
 43.07438300807348
 43.07395921944652
 43.07183077030309
 43.06824893958489
 43.064290672184
 43.06134898809195
 43.06044454970711
 43.06161185367056
 43.06379286106744
 43.06543103660516
 43.06535858181569
 43.06336066955996
 43.06018453502573
 43.05713557819028
 43.05543868533691
 43.05555835476174
 43.05686433209085
 43.0579860620385
 43.05765827975026
 43.05543093320861
 43.05184468018975
 43.04813501968292
 43.04565709550893
 43.04518569424375
 43.04641039407348
 43.04805212774924
 43.04861373657428
 43.04721373821188
 43.04396860625808
 43.03985094932382
 43.03620632428534
 43.03407791186793
 43.03357230037783
 43.03370077776207
 43.03293188885115
 43.03008519896342
 43.02493607724443
 43.01826276300081
 43.01145913434014
 43.00588522770418
 43.00214276793412
 42.99967385973769
 42.99707112873283
 42.99294792044363
 42.98674691091885
 42.97906030826855
 42.97149176562785
 42.96621493562443
 42.96533651883974
 42.97034801154057
 42.98209600116118
 43.00131580509155
 43.02918975761379
 43.06737710260406
 43.11746204712841
 43.18011934916142
 43.2543067923442
 43.33679439590237
 43.42240723754512
 43.50509394778701
 43.57933794320738
 43.6411952564469
 43.68863045086527
 43.72125863822041
 43.73969651302701
 43.74474701191115
 43.73683093347217
 43.71607500770573
 43.68295440071609
 43.63890081065371
 43.5864316721548
 43.52881428615782
 43.46945437388218
 43.411157111512
 43.35553705796126
 43.30299939592982
 43.25338670436549
 43.20680264726651
 43.16404104841107
 43.1264893756362
 43.09568620467517
 43.07269402598462
 43.05749287950544
 43.04880014423016
 43.04458681841036
 43.04298197995311
 43.0429418308141
 43.04437391176376
 43.04782001800906
 43.05387977969019
 43.06254620460032
 43.07280406035434
 43.08287765401414
 43.09103802795276
 43.09637783172867
 43.09908315537193
 43.10020140796276
 43.10110220832955
 43.10278484929787
 43.10530092260283
 43.10771714006028
 43.10874364886249
 43.1075707510762
 43.10433603110144
 43.10005625615428
 43.09618272453253
 43.09394708427306
 43.09370950937066
 43.09471522215837
 43.09554977575496
 43.09501148118662
 43.09276994858707
 43.08947458238774
 43.08641116737554
 43.08489774957668
 43.08558883944123
 43.08803016921925
 43.09086278542969
 43.09261849425724
 43.09252563373329
 43.0908276603845
 43.08858455745487
 43.08715035892538
 43.08748669828187
 43.08957835048783
 43.09238013668405
 43.09444454283676
 43.09478570487247
 43.09338177918766
 43.09112929141544
 43.08941119931722
 43.08944907475087
 43.09163700069998
 43.09525683387027
 43.09889018874176
 43.10127563097064
 43.10198241631505
 43.10155021007215
 43.10118180901834
 43.10216899563928
 43.10520410411968
 43.10990853013325
 43.11499266737912
 43.11902594046968
 43.12125021321195
 43.12191887806041
 43.1221134380839
 43.12323032108547
 43.12629564052023
 43.13136208120249
 43.13742090965363
 43.14301151504356
 43.14710443759316
 43.14963509266696
 43.1514705797117
 43.15397325843382
 43.15834867438461
 43.16497429481446
 43.17309655481318
 43.18122508269384
 43.1880042714885
 43.19292924017493
 43.19651106834557
 43.19995756187527
 43.20457910924827
 43.21109531211242
 43.21915536896256
 43.22747256359403
 43.23457218556819
 43.23960844627182
 43.24272968685942
 43.24492749649761
 43.24754964035546
 43.25162335483863
 43.25723019195092
 43.26336991309452
 43.26853045742752
 43.27157217829625
 43.27229977982585
 43.27147763150455
 43.27043319863642
 43.27042738487087
 43.27197300568191
 43.27448062812311
 43.27659035929834
 43.27701479002271
 43.27526670083169
 43.27185188357875
 43.26798016022586
 43.26499789823492
 43.26369879313857
 43.26381302219518
 43.26409568981497
 43.26305653339688
 43.25980152126144
 43.25443272088225
 43.24791001253104
 43.24156399893456
 43.23642659003615
 43.23261040984167
 43.22915558871243
 43.22457392751804
 43.21772765518149
 43.2084189094921
 43.19742599187953
 43.186120740893
 43.17584778382235
 43.1672380737888
 43.15982119826646
 43.15231441635246
 43.14345753502305
 43.13277439446053
 43.12080738479771
 43.10885196742195
 43.0983916301036
 43.09039071957523
 43.08474299565746
 43.08031126498122
 43.07563301502024
 43.06977749742448
 43.06278284510582
 43.05555395230876
 43.04940025850073
 43.04537376391002
 43.04362943411662
 43.04323190502197
 43.0426699067152
 43.04074038058555
 43.03716512238526
 43.03264765018402
 43.02849608110536
 43.02599983046046
 43.02573571009738
 43.02716541810486
 43.02890477213975
 43.02954816930883
 43.02844305801293
 43.0259541149753
 43.02322581746299
 43.0216390171433
 43.02211794985841
 43.02456902552293
 43.02788326167801
 43.03061080340893
 43.03182053804949
 43.03155773863357
 43.0307513170664
 43.03074564731893
 43.03262997967891
 43.0365858308887
 43.04166520509733
 43.04627863411936
 43.04909075750908
 43.04968460339306
 43.04866344716377
 43.04729679863903
 43.04691028122248
 43.04819190738026
 43.05075235514941
 43.05332900736151
 43.05456923762977
 43.05381569723931
 43.05140718834609
 43.04846966803118
 43.04638560929561
 43.04610050302733
 43.04754305545185
 43.04959625738787
 43.0507557334784
 43.05000860433493
 43.04733050019755
 43.0436274282884
 43.04029381056647
 43.03855828868231
 43.03881673764741
 43.04035491350157
 43.04177040065218
 43.04183277872738
 43.04015278829515
 43.0373114348353
 43.03453516320524
 43.03310698166661
 43.03368157281553
 43.03583750460079
 43.03826408002158
 43.03953815290557
 43.03891994099298
 43.03666992217853
 43.03385423748433
 43.03183090203528
 43.03157254135328
 43.03307905795157
 43.03530485136891
 43.03677070921064
 43.03643697275633
 43.03423060550089
 43.03101756388688
 43.02817714472823
 43.02695408171805
 43.02778236823633
 43.02997856584823
 43.03213680369773
 43.03298908214724
 43.03209109643003
 43.02996555022696
 43.02779308803403
 43.02684276012847
 43.02779161084198
 43.03025271435335
 43.0329268667389
 43.03436773484394
 43.03379737295737
 43.03144887861573
 43.02838523778034
 43.02599121582237
 43.02529408079876
 43.02635429591417
 43.02815628698065
 43.02919951612745
 43.02838413682367
 43.0255695729265
 43.02157488778498
 43.01776800052578
 43.01541996402621
 43.01501665966517
 43.01592249163834
 43.01674520411947
 43.0161990885591
 43.01382960171755
 43.01019201531185
 43.00654823126699
 43.00428715414252
 43.00423009677181
 43.00612859221178
 43.00876905884332
 43.01070650697843
 43.01109220542489
 43.01005926311356
 43.00858255999078
 43.00799446169729
 43.00931280856712
 43.01261590629146
 43.01689157679273
 43.02059044288905
 43.02251337856374
 43.0224038669369
 43.02098124072411
 43.01955043026266
 43.01937068353085
 43.02096393225567
 43.02373790631115
 43.02629505751249
 43.02727673064187
 43.02611945589467
 43.02327988923629
 43.01996144757754
 43.01754791583742
 43.01690728958644
 43.01786269106714
 43.01925516414951
 43.01965792273134
 43.01822086708824
 43.01508454200475
 43.01125916985284
 43.00815203857576
 43.00689957437292
 43.00772392791972
 43.00973829390438
 43.01146028506769
 43.01169417281095
 43.01014873753326
 43.00750028369163
 43.00502200478085
 43.00396360423052
 43.00485989507487
 43.00713595133122
 43.00938891239909
 43.01022249782339
 43.00901932364584
 43.00618725156343
 43.00289626559442
 43.00051404097822
 42.99990773445713
 43.00090174642023
 43.00231585549475
 43.00266541895892
 43.00102249670648
 42.99746694865895
 42.99299763885486
 42.98907489831377
 42.98695205917021
 42.98701343695102
 42.98854103184898
 42.99018761722704
 42.99084038088362
 42.99024210661374
 42.98906888395451
 42.98858333277943
 42.99004012135247
 42.99399957003
 42.99990424550457
 43.00632114808541
 43.01176141244746
 43.0154735767418
 43.01772961761984
 43.01959954851165
 43.0224105450734
 43.0270479447361
 43.03337841677234
 43.04023003755054
 43.04605053629459
 43.04977181387906
 43.05129235851162
 43.05141686626305
 43.0514216384931
 43.052409319032
 43.05465458737272
 43.05734728596706
 43.05903186958437
 43.05847040104777
 43.0553051045504
 43.05018165380405
 43.04441918507605
 43.03940831358843
 43.03590471969446
 43.03356836822157
 43.03115883209686
 43.02733264121697
 43.02145405278133
 43.01391289729423
 43.00591783462532
 42.99895925957257
 42.99410334599334
 42.99138918318036
 42.98976791547158
 42.98774114312604
 42.98425027038448
 42.9792018640569
 42.9734305683695
 42.96826714922003
 42.96489394193921
 42.96368242532979
 42.96390055674962
 42.9641104890339
 42.96302436456728
 42.96019126128336
 42.95614676482407
 42.95210343158522
 42.94937048054797
 42.94866163391303
 42.94962246481685
 42.95099211421861
 42.95137260558219
 42.95003334322899
 42.9472412767568
 42.94407919683324
 42.94194145258066
 42.94185308445631
 42.94386098344005
 42.94693643078119
 42.94958120124809
 42.95071398477798
 42.95021014853027
 42.94887856983814
 42.94804107827218
 42.9488950912828
 42.95184414573288
 42.95618007157302
 42.96045481940448
 42.96333441134985
 42.96430909446421
 42.96386821330219
 42.96320235869333
 42.9636259027839
 42.96588155910103
 42.96964417599298
 42.97363843999381
 42.97638175594186
 42.97701042906167
 42.97565665253644
 42.97329803245412
 42.97126300104564
 42.97055603633207
 42.97125280401038
 42.97239026682271
 42.97254704585159
 42.97071153207558
 42.96681637553886
 42.96171138144798
 42.95674222016493
 42.9531297364987
 42.95133055122935
 42.95075563493541
 42.95021039511839
 42.9488707600156
 42.94712875471469
 42.94684068147718
 42.9509988807511
 42.96301881384839
 42.9858106575027
 43.02096368379451
 43.06848528852016
 43.12716342814921
 43.1951099701732
 43.27006842033472
 43.34946881712122
 43.43036766134988
 43.5093053928915
 43.58218726107118
 43.64453255703367
 43.69228791948267
 43.72282496566881
 43.73550134503301
 43.73155205490953
 43.71349573351585
 43.68429011285151
 43.64644988300045
 43.60151066273053
 43.55021506777192
 43.4932788741355
 43.43210809823468
 43.36899960498776
 43.30683768250357
 43.24848912311044
 43.19606822319823
 43.15037110640429
 43.11090450254054
 43.07658575952592
 43.04661256777742
 43.02093025581299
 43.00016393207415
 42.98519211091213
 42.97652892689649
 42.97372990513755
 42.97522766071573
 42.97885984408508
 42.98277006345958
 42.98605153269408
 42.98883186686814
 42.9919203200032
 42.99620724479719
 43.00198206375101
 43.00851738879839
 43.01430920849353
 43.0178829935934
 43.01856528032905
 43.0167454791893
 43.01363366812652
 43.01071653517212
 43.0090643169521
 43.00876177423903
 43.00889460773097
 43.00820570260532
 43.00593992649363
 43.00229471754275
 42.99833179772873
 42.99552218929505
 42.99508624687865
 42.99734018050441
 43.00146293569935
 43.00596911342647
 43.00958988834326
 43.01192371530467
 43.01352921206337
 43.01557230135872
 43.01922852335553
 43.02500957549687
 43.03234527817614
 43.03980567317842
 43.04589887202722
 43.04986608996074
 43.05198261468621
 43.05334050707992
 43.05531036200637
 43.0588466422638
 43.06390740326103
 43.06941697983024
 43.07391070200521
 43.07640661184421
 43.07690694658118
 43.07634701057938
 43.07615047941772
 43.07756374528165
 43.08098198513709
 43.08567763850621
 43.09023759893464
 43.0934394935516
 43.09492877377586
 43.09534555143001
 43.09599321798475
 43.09823765426101
 43.10279885753185
 43.10927697061753
 43.11633107216465
 43.12247445595261
 43.12690098315648
 43.12982219383826
 43.13227399937851
 43.13559250243272
 43.14072378050861
 43.1476278891551
 43.15520877133759
 43.1619398915784
 43.1667514057125
 43.16956216738289
 43.17124598010645
 43.17319194268369
 43.17664582085473
 43.18203576370257
 43.18867100893326
 43.19513458760495
 43.20014468967886
 43.20325686600955
 43.20502344314872
 43.20667946489129
 43.20955279406294
 43.21436681074308
 43.22075942163796
 43.22742862708139
 43.23289822764486
 43.2363457830884
 43.23796156258335
 43.23877493673351
 43.24014527475431
 43.24308273261004
 43.24763946852168
 43.25279306638367
 43.25702637974204
 43.2592083144285
 43.2591528870605
 43.25761986596131
 43.25590770732144
 43.25522041347067
 43.25599101900585
 43.25753956979029
 43.25841827006925
 43.25726528054477
 43.25354283720937
 43.24773866742164
 43.241076259015
 43.23493613574915
 43.23015444181452
 43.22650755800071
 43.22280419870969
 43.21762037024601
 43.2101408809983
 43.20055516103148
 43.18991431115326
 43.17963607955236
 43.17082387669654
 43.16363846879747
 43.1571472153997
 43.14987617011661
 43.14069331422834
 43.12939874209155
 43.11676133108453
 43.10413413560221
 43.09282929055526
 43.08343577301132
 43.07545136420848
 43.06759058033193
 43.05861741440442
 43.04808756967551
 43.03656255838308
 43.02533069243403
 43.01584002322795
 43.00900408967478
 43.00467185271001
 43.00168276766254
 42.99857299285424
 42.99442185947157
 42.98927746388159
 42.98404733736279
 42.98003153314106
 42.97825931941436
 42.97885500271711
 42.98085225316912
 42.98270983237649
 42.98319071162486
 42.98197440153037
 42.97971560435514
 42.97767553273867
 42.97710869618393
 42.97857428669235
 42.98153241698674
 42.98460826403825
 42.98641286182844
 42.98631876601351
 42.98472546659782
 42.98281579777086
 42.98199895539203
 42.98320442710492
 42.98631665058242
 42.99018231526286
 42.99329417377782
 42.99466376983482
 42.99429293444446
 42.99309000633719
 42.99240761037876
 42.99337742037302
 42.99625827611168
 43.00020577926929
 43.00373884359918
 43.00560581276872
 43.00542935581922
 43.00381050632886
 43.00198834276546
 43.00123938755187
 43.00218835779028
 43.0043784478554
 43.00649309844312
 43.00715270277431
 43.00569949950909
 43.00248981969452
 42.9986797758698
 42.99569646380309
 42.99454887802458
 42.99524683159596
 42.99676018077089
 42.99766048750306
 42.99698803575625
 42.99474494472356
 42.99183793318781
 42.98963653612841
 42.98931656646649
 42.99119466524827
 42.9944627571033
 42.99762784036127
 42.9993841100771
 42.9992816187555
 42.99785009650538
 42.99627487550764
 42.99581165359211
 42.99710008053664
 42.99971209265267
 43.00233971863392
 43.00357878758877
 43.00273207246874
 43.00012623615123
 42.99690792479515
 42.99451605995117
 42.9939895157594
 42.99536774203569
 42.99761825577004
 42.99926086886655
 42.99924974513233
 42.99749713728591
 42.99483818039267
 42.99260325124929
 42.99197627828621
 42.99332959631691
 42.9959248718592
 42.99830790994562
 42.99917050826248
 42.99804967886622
 42.99548675130642
 42.99272027110182
 42.99110312779773
 42.99140196827517
 42.99330736685275
 42.99557725406959
 42.99680278646586
 42.99622693462306
 42.99409058187922
 42.99145632915276
 42.98970373502229
 42.98984985604182
 42.99193878545773
 42.99493129507999
 42.99729511163572
 42.99789143508205
 42.99653513089894
 42.99399655001621
 42.99159386217549
 42.99055289498735
 42.99132453066036
 42.99325016760143
 42.99492218378958
 42.99504178116175
 42.99314295727372
 42.98977117273505
 42.98617614722425
 42.98372881709114
 42.98322888978969
 42.98440925807282
 42.98604927944029
 42.98671643938813
 42.9855976528884
 42.98288043516943
 42.97959955370623
 42.97713931062618
 42.97655958055616
 42.97797769551492
 42.98042123366317
 42.9823786511629
 42.98268164120148
 42.98109052501124
 42.9783187555537
 42.97563966180974
 42.97426800390393
 42.9746939078639
 42.97632532164605
 42.97779616650347
 42.97779580776124
 42.97581172150474
 42.97234840057567
 42.96865054890537
 42.96613017487628
 42.96566460954198
 42.96706798425873
 42.96915701759125
 42.9704661015698
 42.97009609161188
 42.96813924210414
 42.9655671059573
 42.96375831305124
 42.96382871794264
 42.96598837689141
 42.96934368593448
 42.97240291225081
 42.97395421354639
 42.97368487767862
 42.97224681251056
 42.97088939633389
 42.97084571152897
 42.97264805837618
 42.97573414607396
 42.97871887651814
 42.98021012911907
 42.97956953009784
 42.97716896326573
 42.97415192420493
 42.9718878210924
 42.97127718838799
 42.97220144470517
 42.97354901338285
 42.97390609953977
 42.97241222789973
 42.96920234782385
 42.96530098317188
 42.96214881761578
 42.96093200336343
 42.96193069419275
 42.96429994192398
 42.96655893926199
 42.96747628134202
 42.96671151501279
 42.96489762238682
 42.96328197533081
 42.96311822790932
 42.96497766690612
 42.96833112599094
 42.97179389436764
 42.97394091231
 42.97408982062295
 42.97257773733514
 42.9705343160681
 42.96934501932121
 42.96995275619325
 42.97227545440546
 42.97518356572729
 42.97716691696861
 42.97721539880169
 42.97531513778205
 42.97239205219214
 42.96986995247099
 42.96901056542153
 42.97024270456913
 42.97289075238894
 42.97560322383328
 42.97720923182221
 42.97737684111606
 42.97673294283711
 42.97653275548459
 42.97806264114265
 42.98194364693094
 42.98768355081527
 42.99388253666209
 42.99903287577945
 43.00232646874607
 43.00397273777684
 43.0049995144651
 43.00672934310328
 43.01008866970941
 43.01501291596927
 43.02037753388295
 43.02461984059273
 43.02662289543814
 43.02625249632182
 43.02433447018364
 43.02222377930639
 43.02114571391844
 43.02151531865334
 43.02263518015715
 43.02309491389664
 43.02163673319686
 43.01785602647615
 43.01235978284939
 43.00645397543698
 43.00155176388207
 42.99846781049185
 42.99693151597026
 42.99573844350091
 42.99352306098384
 42.98957907699031
 42.98419928472833
 42.97848599638731
 42.97383588986936
 42.9712642702492
 42.97081030390004
 42.97144149106676
 42.97164814000517
 42.97032376109638
 42.96731584290217
 42.96341947588982
 42.95996410610113
 42.95817395579669
 42.95849082156903
 42.96024161965003
 42.96199544291136
 42.96241698108969
 42.96099042709624
 42.95820761970414
 42.95527446318226
 42.95353190784468
 42.95375735272683
 42.95566423287513
 42.95801643897797
 42.95937195084611
 42.95891127084677
 42.95681358177237
 42.95410513266424
 42.95216950312695
 42.95207762248937
 42.95396950988804
 42.95691138079748
 42.95945047363297
 42.96048971913018
 42.95985781445865
 42.95832343579702
 42.95719527133581
 42.95769118278684
 42.96026181896249
 42.96424415832845
 42.96819839039344
 42.97075504218542
 42.97135074844417
 42.97043422023278
 42.96919031601156
 42.96897703298406
 42.97062855034726
 42.97392798839105
 42.97767731856627
 42.98041242794442
 42.98123957680025
 42.98024476006593
 42.97837942207285
 42.97700350538355
 42.9772368780122
 42.97933367817583
 42.98249120339484
 42.98533299748805
 42.98673146750691
 42.98637789132768
 42.984843921516
 42.9832574461548
 42.98276983667927
 42.9839893731533
 42.98672925005145
 42.99041036536815
 42.99495288743531
 43.00151727616794
 43.01262487718034
 43.03167360135323
 43.06205495510816
 43.10605250445025
 43.16387558740074
 43.23338341399798
 43.31071585694685
 43.39137265807747
 43.47109896494742
 43.54632413780204
 43.61421736322711
 43.67244367280721
 43.71878477620123
 43.75101955791942
 43.76735556876815
 43.76714331014883
 43.75129363647097
 43.72213765626674
 43.68287958600386
 43.63684745513102
 43.58670871969888
 43.5339876844005
 43.47925811403945
 43.42290915078749
 43.36588542334826
 43.3099312776367
 43.25734056452733
 43.21040627507442
 43.17072179320422
 43.13861025989755
 43.11312014938056
 43.09271336550467
 43.07616790405357
 43.06309194856623
 43.05388137415498
 43.04929505858362
 43.04982308222788
 43.05505921728616
 43.06348775342455
 43.07297577767434
 43.0816772895339
 43.08870567470202
 43.0942414945884
 43.09918903443261
 43.10457913561248
 43.11087865471291
 43.1175441084626
 43.12322268257164
 43.12654081667108
 43.12689023881942
 43.12471437109733
 43.12128082114607
 43.1181451818252
 43.11645868340066
 43.11637490206832
 43.11699052040012
 43.11697690450104
 43.11544852295651
 43.11246031329147
 43.10895349427329
 43.10632048816742
 43.10576124246568
 43.10762640015036
 43.11114180861961
 43.11482696224768
 43.11736125911093
 43.11827049456833
 43.11807151378358
 43.11795604907517
 43.11920366728833
 43.12248643549631
 43.12739811535924
 43.13262033231005
 43.13669867895565
 43.13885637104492
 43.13932992310041
 43.13918416248979
 43.13980018431453
 43.14219059523425
 43.14639380909534
 43.15138207820353
 43.15566861562981
 43.15819276783408
 43.15886333332738
 43.15853976613172
 43.15860761227014
 43.16033047481918
 43.16417217113597
 43.16947630909047
 43.17483913552569
 43.1789670758404
 43.18139033777127
 43.18263718141344
 43.18393467204783
 43.18663273836428
 43.19150903922108
 43.19827053657302
 43.20567103308574
 43.2122541878278
 43.2171756021871
 43.22057507583272
 43.22342590087904
 43.22704430348801
 43.23241698824789
 43.23958638718779
 43.24752023246204
 43.25468469215169
 43.25993745462881
 43.26310651517531
 43.26499728999028
 43.26697698460713
 43.27033041317947
 43.27557546581997
 43.28211282420301
 43.28856242532592
 43.29361181190291
 43.29675268772132
 43.29848229397111
 43.3000154539122
 43.30271320029775
 43.30739153668575
 43.31380614939947
 43.32073018205291
 43.32667550363471
 43.33073484344743
 43.33298984334006
 43.33438419384512
 43.336244903406
 43.33961304879846
 43.34461289406001
 43.35028158417277
 43.35510196196034
 43.35788590957776
 43.35837792944638
 43.35729921573354
 43.3559597159751
 43.3556240405032
 43.35681561663233
 43.35893418865778
 43.3605583038506
 43.3602871892712
 43.35750216412379
 43.35260062939695
 43.34673222404285
 43.34124023319426
 43.33696649578483
 43.33371455905552
 43.33030230945188
 43.32527448224738
 43.31775931690816
 43.30789979285285
 43.29673865241002
 43.28573619574443
 43.27609047392573
 43.26809117579008
 43.26092660611791
 43.25319542426122
 43.2437862056977
 43.23249475838848
 43.22008678468369
 43.20792712330824
 43.1973621134167
 43.18902962067989
 43.18245532220266
 43.1763166464118
 43.16926516643562
 43.16070455628008
 43.15105678838113
 43.14152086115724
 43.13352263029732
 43.12801461983862
 43.12490670061731
 43.1230610135687
 43.12096788834035
 43.11762353904192
 43.11301492689
 43.10804698094992
 43.10407948407578
 43.10224974990054
 43.10280816682678
 43.10488224755836
 43.10694733764747
 43.10770605283003
 43.10674642514118
 43.10464985961197
 43.10264819395054
 43.102021271063
 43.10340513838849
 43.10635187433985
 43.10953681427444
 43.11155068592136
 43.11169151257943
 43.11026319551053
 43.10836375236163
 43.10736242500018
 43.10821692768535
 43.11088762896763
 43.11428436308962
 43.11690745887461
 43.11773258485358
 43.11672150903704
 43.11476533223195
 43.11323418554019
 43.11331833289172
 43.11536233841049
 43.11858885281711
 43.12152512241915
 43.12287846239011
 43.12222115336707
 43.1201210093063
 43.11781141348499
 43.11660257127361
 43.1171936905071
 43.11921021309842
 43.12137402341948
 43.1222750752654
 43.12117233354207
 43.11831982302024
 43.11478367554853
 43.11193992075197
 43.11080060779982
 43.11141646859851
 43.11278832795557
 43.11347023853418
 43.11244169496962
 43.10963438497946
 43.10590578462372
 43.1026209988941
 43.10101749140519
 43.10153787454896
 43.10351470920144
 43.10554124273573
 43.10632017210913
 43.10536868457559
 43.10318986721676
 43.10097382789701
 43.10002213700827
 43.10105452028549
 43.1037169546581
 43.10671188661554
 43.10855495682633
 43.10840207043036
 43.10641709651458
 43.1036159523763
 43.10137121943821
 43.1007305811243
 43.10179668240449
 43.10360271849674
 43.10468742055144
 43.10397076436685
 43.10131339966734
 43.09752595508789
 43.09396885764444
 43.09191399604902
 43.09185512062459
 43.09315745348624
 43.0944032816543
 43.09424753456028
 43.09215464605335
 43.08860211593176
 43.08480187851269
 43.08213413554688
 43.08144857464337
 43.08254193069389
 43.08423881225296
 43.08511437487066
 43.08432969538109
 43.08203284023529
 43.07922678689495
 43.07728271145151
 43.07726262730041
 43.07928869482267
 43.08238259355686
 43.08501076446359
 43.08597652934859
 43.08502339385102
 43.08287041586722
 43.08081859347119
 43.08012327110528
 43.08131149234013
 43.0838064886995
 43.086224524346
 43.08720258180176
 43.08614790884069
 43.08347237222231
 43.0803398143273
 43.07811963523653
 43.07769659151327
 43.07892499595317
 43.0806592480273
 43.08144575992385
 43.08037288047289
 43.07750776430762
 43.07379708850885
 43.07060875948347
 43.06907153361698
 43.06942948357032
 43.07083265948781
 43.07183126203151
 43.07124890920868
 43.06880642563186
 43.06519773629503
 43.06173087415283
 43.05971417720809
 43.05975967898327
 43.06136627647348
 43.06317405180769
 43.06378595793778
 43.0625495830356
 43.05982657107879
 43.05675201126915
 43.05468301242892
 43.05450210495334
 43.05606187972114
 43.05819677829989
 43.05940391689133
 43.05870805387851
 43.05612539239322
 43.0525767906068
 43.04942698750817
 43.04782108781766
 43.04803372207311
 43.04924262521168
 43.05000283781389
 43.04911575581119
 43.0462632934504
 43.04209393357399
 43.03787456482051
 43.03489776148815
 43.03380356512202
 43.0341519114646
 43.03463977970805
 43.03389414727674
 43.03125505276272
 43.02706513378659
 43.02245296403716
 43.01880649899693
 43.01709090494733
 43.01727346031595
 43.01828291321955
 43.01864743366895
 43.01736158063284
 43.01438536432978
 43.0105927223925
 43.00733160620116
 43.00576851716014
 43.00622334031957
 43.00789837787935
 43.00931056412033
 43.00916738320725
 43.00705280696235
 43.00356561353683
 42.99999406042527
 42.99771516267798
 42.99748395374128
 42.99895523521429
 43.00085351366164
 43.00175549957421
 43.00090667740863
 42.99855714800709
 42.99577333882368
 42.99392014129624
 42.99397641115358
 42.99594121350899
 42.99875595661003
 43.00091279065342
 43.00132563955815
 42.99985539926487
 42.99728129890574
 42.99487597805736
 42.9937606604945
 42.9942353225675
 42.99547901674119
 42.99595118122191
 42.99426493289314
 42.98989624785419
 42.9833487622568
 42.97585156997565
 42.96878468825057
 42.9629884913924
 42.95827240964556
 42.95353457360946
 42.94749460518248
 42.93949235520131
 42.92983075529152
 42.91960459451141
 42.9102091060583
 42.90268376056648
 42.89712221320562
 42.89256226703139
 42.88755597961902
 42.88103033226211
 42.8728292141828
 42.86371111461424
 42.85495502417735
 42.84774868297154
 42.84253159537891
 42.83866381258387
 42.83476945001422
 42.8295745726546
 42.8226198096602
 42.81444088557823
 42.80627493182491
 42.79949251558844
 42.7949124320308
 42.79230009343911
 42.79046008840724
 42.78795251752342
 42.78391018930739
 42.77842662666293
 42.77242967889721
 42.76721531141224
 42.76378952401827
 42.7622479036208
 42.76162080254992
 42.76041613434238
 42.75748962841532
 42.7526196163186
 42.74653421039189
 42.74053026200993
 42.73586062075553
 42.73306412801059
 42.73160443747049
 42.73017459425612
 42.72751354219572
 42.72312803550721
 42.71749931018688
 42.71181809488842
 42.70744369273182
 42.7052294101361
 42.70499587100051
 42.70557730031526
 42.70551385063607
 42.70388479045631
 42.70072686146315
 42.69692599157689
 42.69375853853748
 42.69223840268828
 42.69248793633857
 42.69354794987621
 42.69388443554858
 42.69226615101724
 42.6883906459756
 42.68296127718874
 42.6773200233405
 42.67281070354207
 42.67005275185591
 42.66850552295399
 42.66672671304937
 42.66322004935824
 42.65726401065222
 42.64926516764891
 42.64065016447908
 42.63346277717443
 42.62976626755581
 42.63109596103922
 42.63838462243769
 42.65246070957935
 42.67462727791187
 42.70675051686978
 42.75075472311996
 42.80778800131265
 42.87735903987387
 42.95676179844927
 43.0411903691466
 43.12471035111982
 43.2016506681364
 43.26769333463462
 43.32029770412124
 43.35854659355479
 43.38259831031395
 43.39292814255003
 43.38974131884148
 43.37299566326385
 43.3429959525042
 43.30099727525238
 43.24935459010958
 43.19121547060417
 43.12993976916702
 43.06837886383361
 43.00826622664341
 42.95014268729684
 42.89395537352198
 42.83988097779758
 42.78878891103672
 42.74217804049665
 42.70175226457941
 42.6687965679251
 42.64354990740765
 42.62497441197371
 42.61121933499405
 42.60050790870263
 42.59181969339868
 42.58503589244397
 42.58065189275627
 42.57924433142087
 42.58083609376717
 42.58447313094344
 42.58841439077062
 42.59090449671461
 42.59096522739932
 42.58870737455002
 42.58513130939027
 42.58160840305532
 42.57919331128805
 42.57801805155264
 42.57719787582958
 42.5754227595111
 42.57180936065132
 42.56640913478717
 42.56017262368017
 42.55452894821226
 42.55075311224339
 42.54930896847929
 42.54955020853095
 42.55010115626314
 42.54969725739645
 42.54786918328279
 42.54510066101241
 42.54253380748051
 42.54140998973517
 42.54239825003899
 42.54512464626075
 42.54831164791635
 42.55052279553527
 42.55096242897633
 42.54981636772376
 42.54808035707166
 42.54706629566951
 42.54774206023555
 42.5501436746645
 42.55327494654993
 42.55568318846441
 42.55631235078563
 42.55503195987098
 42.55262815819733
 42.55040898344595
 42.54959391207395
 42.55065986878315
 42.55300875069393
 42.55529819965881
 42.55626185380871
 42.555413472255
 42.55323547372296
 42.55090924288759
 42.54977606008276
 42.55066629068998
 42.55339247034915
 42.55683177035765
 42.55963536116357
 42.56103188645131
 42.56119077573274
 42.56107716861213
 42.56199285039409
 42.56494722892022
 42.57006119025002
 42.5764101353302
 42.58254340215844
 42.58733244478336
 42.59053782918894
 42.5928388130038
 42.59546025872816
 42.59957531583454
 42.6056526714924
 42.61310136026592
 42.62056941917074
 42.62675391657331
 42.63112122796918
 42.63411356034334
 42.63688207699684
 42.64074341378019
 42.64650552103802
 42.65394695861262
 42.66187337038551
 42.66881659148649
 42.67386070471551
 42.67704161019015
 42.67922680421511
 42.68166376277247
 42.68534786264704
 42.69041511854816
 42.69596293580189
 42.70054834589251
 42.70303618673236
 42.70318298505414
 42.70168067475015
 42.69978973672725
 42.69874419421814
 42.69909137693734
 42.70031151817259
 42.70108620337708
 42.70010003599604
 42.69678105634687
 42.6915358230866
 42.68550258863672
 42.68002153120155
 42.67597018396252
 42.67323206130122
 42.67071298173372
 42.66700116931185
 42.66119270011717
 42.65332086075332
 42.64426384244909
 42.63531005170138
 42.62753739822043
 42.62120088260192
 42.61551925877108
 42.60913067527838
 42.60092626046979
 42.59065307379267
 42.57898671199922
 42.56718983319765
 42.55654138363303
 42.54768629005962
 42.54022619613472
 42.53293286250415
 42.52451935963298
 42.51439806412043
 42.50295361858703
 42.49132361963429
 42.48088461465424
 42.472596733464
 42.4664610820512
 42.46149529930638
 42.45635290683738
 42.45014570894275
 42.44290371108694
 42.43551359387687
 42.42929532226258
 42.42537763486759
 42.42407156358745
 42.42462842212704
 42.42566431038061
 42.42598724119866
 42.42521924351016
 42.42389021210296
 42.42311237685447
 42.42402951464023
 42.42718449233961
 42.43210392882835
 42.43748125136143
 42.44192312501339
 42.4447093249241
 42.44608541648442
 42.44706543800061
 42.44893738693612
 42.45261614002557
 42.45808033116623
 42.46430437500942
 42.46984880520449
 42.47368972755739
 42.4757045615881
 42.47663660413533
 42.47770139625246
 42.47999179711677
 42.48385113262246
 42.48858803647155
 42.49285337649739
 42.49545978123284
 42.49603441842721
 42.49514800984225
 42.49400548116171
 42.49389179439719
 42.49551992328969
 42.49858033023853
 42.5018862823874
 42.50410249032151
 42.50451355231164
 42.5033377143827
 42.5015523907916
 42.50042577842776
 42.50089445658702
 42.50300170080754
 42.50579772615754
 42.50789518526681
 42.50829543757939
 42.50689355046902
 42.50445593918465
 42.50223233833111
 42.5013704410262
 42.50229074646533
 42.5043750648889
 42.50630169124971
 42.50684505437695
 42.50554475121638
 42.50286978061023
 42.49994473380152
 42.49802317792646
 42.49784642784505
 42.49917554988917
 42.50089647447529
 42.50171446761306
 42.50091590950546
 42.49869792717384
 42.49601671509592
 42.4941388644182
 42.49402961031527
 42.49578399654326
 42.49849941146534
 42.50079999741892
 42.50165292643364
 42.50088995573216
 42.49921238512722
 42.49782549244283
 42.49786736561384
 42.4997848521514
 42.50299912074222
 42.50620464491303
 42.50815440802386
 42.50834701409119
 42.5072151025663
 42.50586286742065
 42.50554431163244
 42.50702405368343
 42.51009323588799
 42.51363800883694
 42.51631347501614
 42.51732905260663
 42.51681974259776
 42.51571577508641
 42.51529517468501
 42.51657131896906
 42.51971575804818
 42.52390080284255
 42.52779075424742
 42.53035074347585
 42.53138168567497
 42.53153886937024
 42.53198013237682
 42.53381464155154
 42.5374876660035
 42.54242256187999
 42.54728382626625
 42.55075646260672
 42.5522597546876
 42.55216325893236
 42.55154142221586
 42.55166898015114
 42.55339184599436
 42.55662087872684
 42.56034881901342
 42.56328412206583
 42.56463367675007
 42.56449504861949
 42.56375138211992
 42.56364898994097
 42.56520463274822
 42.56862630641725
 42.57312323138756
 42.57735713095073
 42.58023959786812
 42.58149067984417
 42.58169204801726
 42.58195961208617
 42.58340563760086
 42.58652615489688
 42.59082360292081
 42.59503006087672
 42.59785461182748
 42.59869508402988
 42.59787264508985
 42.59640629731761
 42.59552505928433
 42.59605332439119
 42.59790427872149
 42.60007220636438
 42.60123967933401
 42.60056368170434
 42.59809739015912
 42.59471181433197
 42.59168491103226
 42.59010902239257
 42.59029769333419
 42.59156492432994
 42.59264727149989
 42.5924963421526
 42.5908520217562
 42.58830996118171
 42.58600325341784
 42.58507479412766
 42.58607293268253
 42.58856629722204
 42.59134161285158
 42.59312847979249
 42.59330916035085
 42.59216845249166
 42.5906874654188
 42.59007198498264
 42.59114724103423
 42.59384365868057
 42.59716130232587
 42.59975269566478
 42.60071323158696
 42.6000270872682
 42.59850904759347
 42.59740647436949
 42.59781912526773
 42.6001071248191
 42.60364475394616
 42.60720644232801
 42.60974923104523
 42.61100792147671
 42.61158548858757
 42.61263895144987
 42.61534630911982
 42.6202943427849
 42.62707474759875
 42.63445458987795
 42.64108809481524
 42.64624121714704
 42.6500712064733
 42.65344844994859
 42.65750892508302
 42.66306415596384
 42.67007237354989
 42.6775551745853
 42.6841370579449
 42.68882948650123
 42.69149346974712
 42.69279481796485
 42.69382162688314
 42.69553705587006
 42.69821523601822
 42.70117863762626
 42.70313758358348
 42.70295253595351
 42.70025216897751
 42.69556163792194
 42.69002465900652
 42.6849032672681
 42.68097637428946
 42.67809953258091
 42.67530490870004
 42.67146090748312
 42.66599253656335
 42.65918088810345
 42.65199875494609
 42.6456732209117
 42.64111285177656
 42.63838901989315
 42.63663832238353
 42.63457790030513
 42.631280892175
 42.62665003552116
 42.62139313629855
 42.61665884370168
 42.61349703370981
 42.61228628579067
 42.61244604447568
 42.61274817932834
 42.61207202147806
 42.6100369448504
 42.60714278928759
 42.60448942318842
 42.60327261414464
 42.60418800883853
 42.60699554629284
 42.61061502365354
 42.61378340515574
 42.61578458322877
 42.61676390378648
 42.61757776992453
 42.61936784920965
 42.62299325041565
 42.62850255217361
 42.63501304866468
 42.64120505437888
 42.64609326909292
 42.64950914111397
 42.65208700128876
 42.65490993138459
 42.65897989386784
 42.66464723029139
 42.67130910147638
 42.67769939525407
 42.68263223385344
 42.68563976684683
 42.68712895456265
 42.68812332060103
 42.68978330864698
 42.69282838972764
 42.69709518058131
 42.70159556364572
 42.70513489967815
 42.70703443054719
 42.70746176840067
 42.70729216841216
 42.70768511382906
 42.70951922065785
 42.71286593078178
 42.71686513312027
 42.72022409150232
 42.72201146532761
 42.7221566426789
 42.72141884171965
 42.72099248524908
 42.72195063706189
 42.72467803612454
 42.72858591161624
 42.73242513645499
 42.73508981731573
 42.73637036821818
 42.73724821439922
 42.73974204008528
 42.74646057876142
 42.75996467139949
 42.78215900727003
 42.8140868568843
 42.85622028634424
 42.90881233287757
 42.97185646564451
 43.04469993891939
 43.12564202279919
 43.21168787823443
 43.29851654962655
 43.38086409120287
 43.45345424669598
 43.51213149313659
 43.55459023743902
 43.58043802587194
 43.59076264955311
 43.58743384193102
 43.57231805165961
 43.54673216408137
 43.51150373373159
 43.46756594309107
 43.41653546084866
 43.36083893624557
 43.30341268126021
 43.24718105627499
 43.19444708441689
 43.14640259713057
 43.10311261467599
 43.06408531728744
 43.02901613188962
 42.99818561648274
 42.97238922943295
 42.95257607749606
 42.93934460607159
 42.93244595912153
 42.93062312765092
 42.93204378357694
 42.93508351955678
 42.93889311663163
 42.94346420685591
 42.94932005451546
 42.95702323478614
 42.96662886746849
 42.97734804659792
 42.98775527285179
 42.99648040359845
 43.00286061021519
 43.00713518324915
 43.01021477759848
 43.01322898736939
 43.01697466218222
 43.02145399726528
 43.0258520828727
 43.02908858792873
 43.03055105107749
 43.03047728138547
 43.0298511522107
 43.02999755661689
 43.03203627891322
 43.03633986258857
 43.04231363294389
 43.04876921485883
 43.05467577097
 43.05972623208548
 43.06441156560501
 43.06971544816945
 43.07662237568962
 43.08556551696388
 43.09606734968389
 43.10691230174216
 43.11682472684885
 43.12514686492399
 43.13207733128974
 43.13847086999371
 43.14539653731636
 43.15358324454729
 43.16294462014466
 43.17253953375265
 43.18111895651215
 43.18787175210331
 43.19282412205837
 43.19675190551317
 43.20079921972035
 43.20596063613279
 43.2125520729482
 43.21997348928217
 43.22705137065007
 43.23277635764106
 43.23687526385918
 43.23989198833994
 43.24288720768405
 43.24695527110725
 43.25267232616
 43.2597104245995
 43.26696829880207
 43.27323168584338
 43.27787099057439
 43.28110561604701
 43.28381432028148
 43.28710319244147
 43.29176846138737
 43.29782109108225
 43.30441038895417
 43.31032753145676
 43.31474750247121
 43.31766216058251
 43.31982301313639
 43.32236586212877
 43.32628541670714
 43.3318943384431
 43.33856520657623
 43.34505194093431
 43.35023274920724
 43.35371729750634
 43.3559626162013
 43.35798741845729
 43.36088969630455
 43.36528850927563
 43.37091802508159
 43.3767261911807
 43.38151644849303
 43.38465730190131
 43.38637091580456
 43.38755597536753
 43.3893553553653
 43.39261311432932
 43.39738439929367
 43.40283344088324
 43.40771877298905
 43.41114456270102
 43.413020178188
 43.41402204819169
 43.41523131105923
 43.41762705580418
 43.42155315569632
 43.4264325358837
 43.43104016584088
 43.43421926901608
 43.43549926412362
 43.43523773739438
 43.43435496192114
 43.43386681315758
 43.43433807898983
 43.43547152321423
 43.43618399800077
 43.43523330175253
 43.4319389232682
 43.42649384419283
 43.41980177220939
 43.4130501335499
 43.40717082869711
 43.40234192826564
 43.39785115259956
 43.39254051134619
 43.38555087028006
 43.37681237227835
 43.36704065931418
 43.35738948405523
 43.34894521803416
 43.3421885906774
 43.33669244173898
 43.33136964583854
 43.32517550099104
 43.31773353631009
 43.30949271422037
 43.30146861683726
 43.29477808033579
 43.29009476352344
 43.28722639853788
 43.28515661076519
 43.28264376839709
 43.27895104640498
 43.2741936375101
 43.2692070098956
 43.26513662262308
 43.26290383505619
 43.26269394020157
 43.26378373286632
 43.26495366028428
 43.26523389498858
 43.26442220262939
 43.26310357586984
 43.26231504888841
 43.26305108593461
 43.26572685882725
 43.26984974746457
 43.27422852815977
 43.2776664508654
 43.27961646458572
 43.2803775087452
 43.28086387752418
 43.2821573077126
 43.28496635307035
 43.28917916945721
 43.29385212505423
 43.29776183201212
 43.30013149756158
 43.30101023524559
 43.30117583367805
 43.30174605235066
 43.30365494951789
 43.30713309752319
 43.31150203961128
 43.31555105628299
 43.31828091445504
 43.31945106447222
 43.31962714819103
 43.31985526772254
 43.32116804254936
 43.32404496079379
 43.32806693265865
 43.33209643393699
 43.33495506662259
 43.33609117768622
 43.33580032792442
 43.33501240382564
 43.33485393617011
 43.33611077922037
 43.33876861589886
 43.34197346783213
 43.34456138601581
 43.34578456665569
 43.34569990163163
 43.34507421986783
 43.34499698503377
 43.34636643514418
 43.34937697185508
 43.35330214945343
 43.35685347189801
 43.35892844247407
 43.35918764983619
 43.35813558258601
 43.35681541871965
 43.35631966138941
 43.35723781611928
 43.35927920044542
 43.36141076585734
 43.36250560055284
 43.36201226419673
 43.36019975065644
 43.35797964197452
 43.35652574193847
 43.3568176810707
 43.35921274327605
 43.36328991785693
 43.36814083656972
 43.37290145770798
 43.37712771363581
 43.380857699747
 43.38445885710277
 43.38834847139135
 43.39263389054771
 43.396863219301
 43.40014850981048
 43.40162890989823
 43.40091177357276
 43.3982158140652
 43.39423811738299
 43.38986168221734
 43.38576726105669
 43.38209064189253
 43.37838897656453
 43.37400377597786
 43.36853953435034
 43.36211527928035
 43.35532223169339
 43.34900041968608
 43.34390364838455
 43.34033006454762
 43.33795145099597
 43.336045520558
 43.33397614997609
 43.33154273514124
 43.3290251999109
 43.32701513395896
 43.32613146254397
 43.32666423557508
 43.3283142040989
 43.33028650665219
 43.33173359163997
 43.33220303233599
 43.33180209668357
 43.33108614759374
 43.33078680610097
 43.33143679525704
 43.3330164810485
 43.33489571889751
 43.33619536073644
 43.336297273028
 43.33512969543492
 43.33313861611249
 43.33106401993153
 43.32959944039295
 43.32901130023074
 43.32895246527286
 43.32868723163795
 43.32758498533498
 43.32549388811184
 43.32279739070954
 43.32023420959388
 43.31858939690407
 43.31831312488696
 43.31923979049132
 43.32066816572571
 43.32180358470208
 43.32221475375012
 43.32200617422849
 43.32171126544787
 43.32202862913642
 43.32346062775635
 43.32596733852807
 43.32889747990674
 43.33133381256597
 43.33260279007857
 43.33257092352322
 43.33162343975308
 43.33044731425886
 43.32970615792137
 43.32967197488324
 43.33002862068215
 43.33006879647324
 43.32916547370277
 43.32714016047594
 43.32432616788461
 43.32140458402105
 43.31911787226177
 43.31790355176749
 43.31760581877639
 43.31753487247419
 43.31689923538429
 43.3152686411097
 43.31275380726263
 43.30990285808717
 43.30744419327656
 43.30593623141753
 43.30542617000045
 43.30536999626667
 43.30495793284337
 43.30360994207519
 43.30126997174685
 43.29838967179329
 43.29571505218087
 43.29395970790538
 43.29342870507788
 43.2938039414752
 43.29432386658958
 43.29426901900784
 43.29337743723126
 43.29194533710881
 43.29066264578356
 43.29030666696277
 43.29136066262732
 43.29370868089738
 43.29666446567772
 43.29938132440687
 43.30133044419019
 43.30252336044586
 43.30344234231872
 43.30479381767067
 43.30715261263903
 43.31059989178281
 43.31460489872699
 43.31831618604191
 43.32105603560614
 43.32264182724958
 43.32339662678022
 43.32395066679925
 43.32492204583087
 43.3265378956727
 43.32840379008095
 43.32967168267972
 43.32953294582409
 43.32764736848136
 43.32425012488692
 43.3199935304544
 43.31565135398584
 43.31174309040156
 43.30822112512203
 43.30448490692489
 43.29978473594372
 43.29370327675372
 43.28637475374499
 43.27840397394697
 43.27061694529213
 43.2637157811933
 43.25792302228462
 43.25285144540633
 43.24777765899803
 43.2421327239598
 43.2358289945199
 43.22926884738131
 43.22314085068572
 43.21810994129093
 43.21445953239486
 43.21186452077397
 43.20953412340738
 43.20667988504341
 43.2029472670479
 43.19854259236767
 43.19409145082238
 43.19035412240526
 43.18785194292963
 43.18653249693232
 43.18574539271531
 43.18462869783412
 43.18261176726009
 43.17967170811362
 43.17627859107675
 43.17315520461397
 43.17093003312002
 43.16977028608167
 43.16923238695492
 43.16852198989507
 43.16699086791159
 43.16448603040014
 43.16138144477177
 43.15838520934821
 43.15622356582286
 43.15526229805752
 43.15525356464363
 43.15545832183597
 43.15510488686321
 43.1538201532483
 43.15176436311192
 43.14950517702329
 43.14775257450186
 43.14700424675429
 43.1472204556952
 43.14778860826284
 43.14788691271395
 43.14697682935569
 43.14506415956788
 43.14265005925952
 43.14049648754092
 43.13928715947902
 43.13925678755889
 43.140013087981
 43.14076203533933
 43.14079751614636
 43.13987539246325
 43.138279161257
 43.1366550365556
 43.13571448360491
 43.13585002802658
 43.13683432488922
 43.137874937151
 43.13804703649753
 43.13676989529829
 43.13402723454216
 43.13033879717101
 43.12661219609165
 43.12391695857743
 43.12324812355349
 43.12549862164439
 43.13175499534896
 43.14365283920926
 43.16341169708796
 43.19345785449688
 43.23578556106851
 43.29121645580611
 43.35875714000092
 43.43540128954165
 43.51662772121194
 43.59737889676508
 43.67298536387383
 43.73970959036373
 43.79493158997786
 43.83706561153175
 43.86525365461718
 43.87902015946482
 43.87819411861383
 43.86315656592485
 43.83510370939296
 43.79604161456908
 43.74853141368966
 43.69532590988755
 43.63895756994999
 43.58136277754915
 43.52377288691111
 43.46700448169529
 43.41191172605922
 43.3596358799812
 43.31155333325751
 43.26904290555612
 43.23316060814669
 43.20428778367479
 43.18195745801512
 43.1650817165642
 43.15248072121296
 43.14332798768045
 43.13727139038422
 43.13429464036236
 43.13444676372774
 43.13749788684731
 43.14266962267063
 43.14870145872513
 43.15429418773916
 43.15860011603276
 43.16142662887061
 43.16313127248075
 43.16434717814872
 43.16561807084889
 43.16704398483206
 43.16818108211445
 43.16834822125084
 43.16711655759294
 43.16460046528297
 43.16142590640837
 43.15849665683015
 43.15665600580407
 43.15630400381454
 43.15717111647359
 43.15849286977402
 43.1595105639629
 43.15990494503443
 43.15989823453469
 43.16008473914473
 43.16113186484334
 43.16341638013589
 43.16673174092718
 43.17032031131399
 43.17329012762922
 43.17510471678968
 43.17580297268369
 43.17590834732744
 43.17616327050556
 43.17717131358565
 43.17904026209776
 43.18126599884109
 43.18303268891465
 43.1837263332185
 43.18326436443305
 43.18209302980402
 43.18097472585039
 43.18067223246874
 43.18157805379875
 43.18347070967452
 43.185650441952
 43.18741048319886
 43.18846744751713
 43.18907570451776
 43.18987067906843
 43.19157752722953
 43.19464712024378
 43.19895030145676
 43.20379144654064
 43.20832099072618
 43.21203547508242
 43.21499949411236
 43.21774725003917
 43.22102143143297
 43.22543452625277
 43.2311216810056
 43.23760794915486
 43.2440796965115
 43.24988688398912
 43.2548853457378
 43.25944715857954
 43.26424448868608
 43.26992722202203
 43.27675970300782
 43.28439167282112
 43.29200275737929
 43.29877943856841
 43.304354834212
 43.308932566352
 43.31313329237809
 43.31770175834048
 43.32313762733231
 43.32937023450037
 43.33573452466942
 43.34135552707199
 43.34566054993862
 43.34864188983346
 43.35078846380809
 43.35282786586313
 43.35538038023238
 43.35860665189509
 43.36206645635294
 43.36498022036405
 43.36673167961004
 43.3672188375246
 43.36687117480193
 43.36643870327644
 43.36667538905213
 43.36797245183411
 43.37010546452914
 43.37234373278112
 43.37390534304189
 43.37439744499186
 43.37395169208827
 43.37308532228309
 43.37242765186494
 43.37237539388004
 43.37278659145917
 43.37295628752919
 43.37198373044298
 43.36926917108978
 43.36477637582613
 43.35897739604128
 43.35261032724277
 43.34633961668708
 43.34038951830955
 43.33436654839372
 43.32748870397388
 43.31909555495199
 43.30904101341211
 43.29774614210066
 43.28599767384311
 43.27462652631746
 43.26413303704394
 43.2544190648221
 43.24487466397286
 43.23482090400488
 43.22396383530498
 43.21255591985678
 43.20127144971482
 43.19093058150609
 43.18213970060268
 43.17495586603514
 43.16882484599432
 43.16292751169356
 43.15668790492727
 43.15006073132342
 43.14348960098744
 43.13766714752414
 43.1331992038424
 43.13024259315971
 43.12832260105342
 43.12655266348242
 43.12414875345483
 43.12084280467067
 43.11695468350165
 43.11319869716581
 43.11036422685336
 43.10893696428322
 43.10881094746966
 43.10934452191566
 43.10979014270249
 43.1097640077817
 43.10942691584824
 43.10936366127989
 43.11030670650582
 43.11278416096695
 43.11678749655452
 43.12169408854309
 43.12659509234431
 43.1308065039163
 43.13417604020155
 43.13705678919568
 43.14007622795116
 43.14381068380943
 43.14842680437354
 43.15347992543391
 43.15810008826762
 43.16148742196527
 43.16333405442917
 43.16391753145003
 43.16392550938031
 43.16415156154026
 43.16512754520721
 43.16682474492836
 43.1686733101247
 43.16996376293031
 43.17032492624046
 43.16993462247426
 43.16941989389498
 43.16958204780952
 43.17103310742837
 43.17384504823588
 43.17745083094163
 43.18095954247666
 43.1836755811611
 43.18542943753267
 43.18657271216351
 43.18775494224408
 43.18959656331958
 43.19232419454256
 43.1955555072928
 43.19846990786729
 43.20030032019793
 43.20076316381935
 43.20015885263859
 43.19919456761809
 43.19866689051954
 43.19907474547892
 43.20030908649961
 43.20167886804327
 43.20233501640591
 43.20177515745314
 43.20007087155068
 43.19777211897704
 43.19563654658794
 43.19427561813601
 43.19380467026
 43.1937220678326
 43.19319578652888
 43.19157819962133
 43.1887554612182
 43.18515467623546
 43.18151503316616
 43.17855141449525
 43.17658553499778
 43.17532373287746
 43.1740144359155
 43.17193208521439
 43.16880831477398
 43.16493293592203
 43.16097608293359
 43.15768459671365
 43.15552521533579
 43.15438863641861
 43.15359230411063
 43.15227663029804
 43.14991432991432
 43.14656172923565
 43.14277854968577
 43.1393613152628
 43.13698790929122
 43.13585155965281
 43.13550613279975
 43.13512538990175
 43.13402223730656
 43.13202614654759
 43.12951446368603
 43.12719094874444
 43.12574632039549
 43.12548091317172
 43.12606545978036
 43.12667993013768
 43.12649663781443
 43.12513267141647
 43.12277784647982
 43.12003796493442
 43.11764279473485
 43.11608332903214
 43.11529141126079
 43.11461507631951
 43.11320183337661
 43.1105139365931
 43.10659269036462
 43.10198356524516
 43.0974700253886
 43.09372770620252
 43.09097100122681
 43.08878842968537
 43.08637104233699
 43.08301576514454
 43.07851714870946
 43.07322145843244
 43.06782160864001
 43.06303381867293
 43.05923186225094
 43.05619429792149
 43.05320460902792
 43.0495060422228
 43.04476234196017
 43.0392110634546
 43.03351795760042
 43.02848381375359
 43.02468519686151
 43.02215286621048
 43.02032364852265
 43.01839282161168
 43.01581849299594
 43.01259555397006
 43.00919621314318
 43.00631989334124
 43.00456205977989
 43.00406630356423
 43.00435468563671
 43.00455343451757
 43.00390553186157
 43.00217402092541
 42.99969787641793
 42.99718344031783
 42.99538191487731
 42.99472426043234
 42.99505254471387
 42.99568800823771
 42.99586613160727
 42.99520789663165
 42.99389580313245
 42.99254029164289
 42.99188929509961
 42.99247174143625
 42.99427286955556
 42.99666925996225
 42.99876572092682
 42.99990825311487
 42.99998795879728
 42.99940898649768
 42.99884955263554
 42.99893147030402
 42.99986514901536
 43.00125696986967
 43.00230436281406
 43.00229704209158
 43.00103613979083
 42.99891125152794
 42.99669805294347
 42.99522736773452
 42.99500464563057
 42.99591901480069
 42.99728731887321
 42.99828464786571
 42.99843896359285
 42.99783665385266
 42.99700795396971
 42.99665190835781
 42.99729507462056
 42.99896668345036
 43.00110869212443
 43.0028828248733
 43.00367466577568
 43.00340675193102
 43.00251669346161
 43.0017258997914
 43.00171808027778
 43.0027892013889
 43.00464525109459
 43.00657402237381
 43.00792187103495
 43.00849546879918
 43.00863312309251
 43.00901502672602
 43.01036158559487
 43.01308275995552
 43.01699853026542
 43.02137261001558
 43.0253296093742
 43.02835168607243
 43.03049863699637
 43.0323049837984
 43.03450512726089
 43.03768335311989
 43.04193400487009
 43.04675067398741
 43.05131750304264
 43.05501623396641
 43.05775205910579
 43.05993272074338
 43.06222679829613
 43.06524027259745
 43.06917456259607
 43.0736205723522
 43.077712953291
 43.08060569755887
 43.08190512544008
 43.08178434437602
 43.08082508933656
 43.07973288345404
 43.07898992634232
 43.07855858070537
 43.07787695477967
 43.07623800255547
 43.07327051036756
 43.0691627640266
 43.06456582567613
 43.06032185177574
 43.05711751738988
 43.05514288425669
 43.05396414359322
 43.0527927563384
 43.05099012977002
 43.04841634063241
 43.04544070708135
 43.04272596074294
 43.04091604661958
 43.04028499358316
 43.04050589683785
 43.04077988487898
 43.04030461791395
 43.03872067177806
 43.03623894491253
 43.03347804262913
 43.03116800689585
 43.02980137431933
 43.02933835187299
 43.02919557185766
 43.0286197545135
 43.02717606333366
 43.02498008177525
 43.02260136746973
 43.02079660362799
 43.02017799943337
 43.02087784951432
 43.02240154057996
 43.02387271764265
 43.02454697255995
 43.0241999231066
 43.02316743474356
 43.02212943476159
 43.02178303378906
 43.02247747795226
 43.0239639456343
 43.02549823086949
 43.02629846073172
 43.02601061145064
 43.02486378947067
 43.0235181668837
 43.02276075423063
 43.02314037238487
 43.02465071545709
 43.02669243077604
 43.0284324357206
 43.02930663185121
 43.02928513042601
 43.02880528641788
 43.02852264437506
 43.02898897484019
 43.03031599498883
 43.0320154460702
 43.03323427943595
 43.03327632835548
 43.03200317339999
 43.02986464791769
 43.02764660066966
 43.02610753239866
 43.02560022566465
 43.02582769261078
 43.02596626113232
 43.02518320441828
 43.02322271562831
 43.02071223373559
 43.01913538682845
 43.02058828843468
 43.02738876139369
 43.04162658355592
 43.06488039138595
 43.09824514474958
 43.14245344284137
 43.19775688161165
 43.26356964828609
 43.33815359361295
 43.41851682742863
 43.50052159928991
 43.57925198355436
 43.64973813025047
 43.70786487078858
 43.75102468672412
 43.77825109144666
 43.78993933019235
 43.78736486797229
 43.7721240903259
 43.74566602182385
 43.70917692005659
 43.66387340133134
 43.61138208096764
 43.55385612231943
 43.49379812513491
 43.4337388420626
 43.37585478231163
 43.32160782829879
 43.27163182729231
 43.22603023801111
 43.18488062792238
 43.14855165553428
 43.11768644171036
 43.09298128084356
 43.07488218587513
 43.06326192136044
 43.05725231070252
 43.05545442758282
 43.0564575453173
 43.05928686609195
 43.06351658459272
 43.06911103543973
 43.07614724435544
 43.08448550709112
 43.09350203805623
 43.10212155350118
 43.10922746276597
 43.11415317247919
 43.11689537633869
 43.11799924768008
 43.11827169453869
 43.11842419617517
 43.11872302855439
 43.11885549642265
 43.11819372105283
 43.11629008080791
 43.11320996614274
 43.10951998683865
 43.10604768334513
 43.10355503988463
 43.10239518573253
 43.10230779516813
 43.10257379923502
 43.10248977759761
 43.10179613551706
 43.10077758661509
 43.10008565852143
 43.10044173922299
 43.10228900475416
 43.1054983539156
 43.1093669051788
 43.11300993342554
 43.11586801964098
 43.11795428226785
 43.11976480131361
 43.12200479735233
 43.12524216193787
 43.1295675428106
 43.13446449034562
 43.13907778824256
 43.14272877437733
 43.14527859991066
 43.14713752937727
 43.14903034924803
 43.15166629502021
 43.15538268135863
 43.15991480998297
 43.16452210107686
 43.168451354343
 43.1713807528096
 43.17354604676809
 43.17557419306183
 43.17818177837241
 43.18182387830143
 43.18640278679976
 43.19126335452476
 43.1955736967907
 43.19882295086833
 43.20106649770752
 43.20284231929098
 43.20491004717667
 43.20791563306805
 43.21204507693944
 43.21686718448011
 43.22157437786953
 43.22549239516321
 43.22845757070123
 43.2308443335334
 43.23334612125453
 43.23666099756416
 43.24114831474125
 43.24659274604795
 43.25230079180339
 43.25753673930294
 43.26196486109297
 43.26579042885825
 43.26960799849555
 43.27411014772377
 43.27973997841212
 43.28638914898815
 43.29336894205198
 43.29977555061411
 43.30500053774208
 43.309001140219
 43.3122289745402
 43.31537073037327
 43.3190166455743
 43.32331623781286
 43.32780979884596
 43.33165314303943
 43.3341287796077
 43.33504217443662
 43.33476281373127
 43.33400303914379
 43.33349488135661
 43.33363424353966
 43.33422320448499
 43.33454712316036
 43.33382100668066
 43.33167265990602
 43.3283164169433
 43.32439761013559
 43.32067854885661
 43.3176779068404
 43.31536085872188
 43.3130895992737
 43.30996778172905
 43.30535925835542
 43.29919394566936
 43.29192550479488
 43.28427553062924
 43.2768950808488
 43.27001774265
 43.26328208177479
 43.25593292694793
 43.24731424026703
 43.23727037793841
 43.22620562753136
 43.21487819306269
 43.20408709871851
 43.19432307171683
 43.18550391966234
 43.17702581341528
 43.16818369836111
 43.15864767222848
 43.1486474332886
 43.13883802011357
 43.13001268714251
 43.12276087987048
 43.11715021251682
 43.1126416355045
 43.10840009082388
 43.10380916907643
 43.09879492449699
 43.09379851866159
 43.08952630165226
 43.08661592948789
 43.08528923127859
 43.08515771862638
 43.08539717803439
 43.08522995031959
 43.08434174936293
 43.08296626865671
 43.08169609900029
 43.08117877552849
 43.08177488489
 43.08328978809048
 43.08500340284684
 43.08607297034128
 43.08601978903523
 43.08494314683544
 43.08341135527367
 43.08218576085952
 43.08187434040793
 43.08259304403265
 43.08384909687196
 43.08482471814405
 43.08488881953177
 43.08394228369482
 43.08241566677363
 43.08103178725457
 43.08047383875806
 43.08103347103899
 43.08240004270581
 43.08381291546075
 43.0845360015268
 43.08428828982702
 43.08334775441666
 43.08237224523774
 43.08209302874572
 43.08295964111745
 43.08485123898999
 43.08708715163073
 43.08882294826567
 43.08954757908885
 43.08931502481311
 43.08864490283263
 43.08824759244747
 43.08868474151267
 43.09004114860462
 43.09180366675784
 43.09313158366818
 43.09337032914922
 43.09241131245468
 43.09069759091604
 43.08898876928225
 43.08803359482817
 43.08821464396866
 43.08931045114751
 43.09060565135459
 43.09134427630663
 43.09117590269736
 43.09028581778181
 43.08923460533659
 43.08867449239048
 43.08901999747871
 43.09016132183341
 43.09144252538374
 43.09202247285958
 43.09137081339113
 43.08952577920207
 43.08701713026055
 43.08460106241542
 43.08292593613152
 43.08219765524633
 43.08202806197646
 43.08166628706435
 43.08049679138796
 43.07841081095754
 43.07582520328751
 43.07345165094311
 43.07198088513578
 43.07174852185401
 43.07250237961263
 43.07349333583657
 43.07391520135794
 43.07336788858086
 43.07201865541418
 43.07045630270015
 43.06940175513983
 43.06937003686728
 43.070373561266
 43.07187528208898
 43.07311778769071
 43.07360302106329
 43.0733509573111
 43.07282928158134
 43.07269967457205
 43.07350140796169
 43.07533138345345
 43.07769041526889
 43.07970293362509
 43.08061800931677
 43.08020382695633
 43.07879171259281
 43.07705888339471
 43.07571426322458
 43.07515707966616
 43.07522772061066
 43.07527548041831
 43.07458128260996
 43.07281787159528
 43.07021360793698
 43.06740628960831
 43.06515395136762
 43.06399753127073
 43.06395671243229
 43.06446961916696
 43.06472076776768
 43.06414296621086
 43.06270672141479
 43.06086551197481
 43.05929967904199
 43.05859503173208
 43.05892049163432
 43.05986372128935
 43.06062899311338
 43.0605202178882
 43.05933375412317
 43.05741207357062
 43.05543730706442
 43.0541276687157
 43.05390406181005
 43.05463192922009
 43.05565788094611
 43.05620500188272
 43.05583839922861
 43.05466209945742
 43.05320804800117
 43.0521702476028
 43.05207691958894
 43.05297603698239
 43.05434191446344
 43.05536962073296
 43.05547467756998
 43.05460866380624
 43.05322992899829
 43.05205914307059
 43.05175942119608
 43.05260319574509
 43.054278702223
 43.05605161245469
 43.05723111412188
 43.05757311360767
 43.05735444346837
 43.05718239794344
 43.05770071418733
 43.05925850815176
 43.06164463442879
 43.06411532379845
 43.06579781777596
 43.06618296137894
 43.06534455194198
 43.06383018029077
 43.06238508503201
 43.06161699310434
 43.06167439578267
 43.06213210731572
 43.06226207530401
 43.06153421111925
 43.05995338724506
 43.0580422352506
 43.05659011134202
 43.05632313825652
 43.05756604440906
 43.06003806813055
 43.06299484803633
 43.06568792600459
 43.06779018041102
 43.06950155574835
 43.07137357049088
 43.07401600594198
 43.07777039195115
 43.08244976395515
 43.08735244139226
 43.09163863838597
 43.09481002308796
 43.09693225117644
 43.09852552632376
 43.10028052692834
 43.10272017153946
 43.10588156603467
 43.10920140550734
 43.11178437768121
 43.11291464129016
 43.11241876702241
 43.11067440519659
 43.1083749782379
 43.10620569629773
 43.10449981624522
 43.10301511328005
 43.10105307058627
 43.09791263980416
 43.09333114244252
 43.08760696393284
 43.08142795033073
 43.07557497112168
 43.07058859829006
 43.06648815973674
 43.06275184808494
 43.05866874281079
 43.0538188764946
 43.04831320977665
 43.04270296455789
 43.03771254492295
 43.03391815710926
 43.03143503841797
 43.0297848828821
 43.02813790957098
 43.02581417449062
 43.02265033504631
 43.01900950001869
 43.01554657080403
 43.01289795185187
 43.01135842552147
 43.01066029181943
 43.01007173534877
 43.00883351987377
 43.00660945490051
 43.00363470815727
 43.00056145511459
 42.99816287035507
 42.99698785850337
 42.99705639499052
 42.99780867147028
 42.99844256924525
 42.99841528937601
 42.99772412406156
 42.99684397792609
 42.99646877057902
 42.99718858266496
 42.99916383023187
 43.00195959057164
 43.00474795008041
 43.0067976098954
 43.00786942168609
 43.00826714781208
 43.00862481549628
 43.0095966679421
 43.01152123400939
 43.01417331637956
 43.0168272877227
 43.0186809611773
 43.01933021031101
 43.01895008381085
 43.01815203530142
 43.017682122003
 43.01806941765331
 43.01931506918974
 43.02082712697458
 43.02174847446452
 43.02147754837506
 43.01998842696294
 43.01779218913314
 43.01566694176331
 43.0142958267755
 43.01389559901424
 43.01402223115125
 43.01377794735976
 43.01234731468543
 43.00948331957684
 43.00568644869199
 43.00213277710291
 43.00046992389648
 43.00250858940705
 43.00990767983976
 43.02408568662823
 43.0464241868668
 43.07845570434227
 43.12168390275627
 43.17704519637027
 43.24430246205981
 43.32162529645027
 43.40549399988049
 43.49105459678499
 43.57295205525167
 43.64634563351338
 43.70763771963865
 43.75470136224506
 43.78672481024665
 43.80384613842321
 43.80668632893698
 43.79597083808049
 43.77249162546152
 43.73739787222152
 43.69246734667532
 43.64008101370283
 43.58294814395319
 43.52374241436507
 43.46472023251473
 43.40741571964529
 43.35262636421754
 43.30077191030281
 43.25235269754973
 43.20815383106945
 43.16913926807685
 43.13619707599875
 43.10984049724433
 43.08992579419459
 43.07557347402044
 43.06547474709137
 43.05843263937597
 43.05374009018481
 43.05119790847394
 43.0508926925313
 43.05289106047773
 43.0569182106307
 43.06216462725754
 43.06744139300657
 43.07165865255503
 43.07426545220314
 43.07535294728879
 43.0754619125044
 43.07527053096833
 43.07524814408642
 43.0753686700001
 43.07509907571531
 43.07376573546141
 43.07103957695438
 43.0671662421135
 43.06285493465073
 43.05898736286629
 43.05627701302892
 43.05495225753442
 43.05463569525735
 43.05459616619456
 43.05424678780812
 43.05350631000272
 43.05280978188818
 43.05287203198105
 43.05436497793489
 43.05757976960459
 43.06220259787023
 43.06742445571049
 43.07239487950317
 43.07668115087605
 43.08041144582121
 43.0841102528338
 43.08839870549619
 43.09365842094116
 43.099752335075
 43.1060089227121
 43.11158164853013
 43.11594417842679
 43.11914654633488
 43.12172750304146
 43.12443358323101
 43.12787674103505
 43.13220951435434
 43.13699518782717
 43.14145312359421
 43.14495364797302
 43.14738148259958
 43.14915664305389
 43.15101121737183
 43.15367248192172
 43.15751927754159
 43.16234015654552
 43.1674183129693
 43.17197224317861
 43.17562670840096
 43.17857773728597
 43.18144043025006
 43.18495139996058
 43.18962771834917
 43.19546948813576
 43.20191044103181
 43.20814558498428
 43.21361978568084
 43.21830593063795
 43.22264951159089
 43.22731453581935
 43.23285948187819
 43.23941433639016
 43.24652620698371
 43.25337208375194
 43.25924939468697
 43.26396303563286
 43.26786174273504
 43.27161048284128
 43.27587144986807
 43.28096929118254
 43.28665142126551
 43.29216126654028
 43.296674025771
 43.29978190273415
 43.30167240297229
 43.30297108572923
 43.30443440114858
 43.30661054710245
 43.30954260576085
 43.31269953977817
 43.31528051768381
 43.31670860312192
 43.31693757609443
 43.31641780963851
 43.31584440247757
 43.3158258678278
 43.31655158783968
 43.31762150074364
 43.31823742895254
 43.31768290797579
 43.31572157684072
 43.3126583781687
 43.30913399849761
 43.30581645029715
 43.30306482102323
 43.30067561178921
 43.29793065504658
 43.29400920038479
 43.2884704808575
 43.28145395068676
 43.27355038830398
 43.26551034021566
 43.25790492477175
 43.2508177639689
 43.24375704042483
 43.23594687425131
 43.22682897168073
 43.21638598733077
 43.20511108684548
 43.19375587090816
 43.18301390069035
 43.17320346952364
 43.16408308727934
 43.15500458958912
 43.14536985970555
 43.13503963781424
 43.12441599311593
 43.114246281588
 43.1053158746448
 43.09810985230114
 43.09254332097999
 43.08797639769718
 43.08360029665021
 43.07892255249332
 43.07398938240794
 43.06927861066495
 43.06542666138388
 43.0629073839027
 43.06173069462059
 43.06134070721825
 43.06088604322763
 43.05971470733624
 43.05770967600601
 43.05527790854492
 43.05310976663954
 43.05185849429865
 43.05180536177713
 43.05264957588587
 43.05364039460858
 43.05403702623644
 43.05354716950883
 43.05244006119435
 43.05135964823342
 43.05101307818683
 43.05183274341166
 43.05370821124332
 43.05599231970238
 43.05787901526153
 43.05889754979015
 43.0591491297206
 43.05919715308395
 43.05977597347795
 43.06145323426325
 43.06431802985046
 43.06786390819647
 43.07124191184583
 43.07375744762445
 43.07523054544051
 43.07600676876796
 43.07672281660354
 43.07799137322345
 43.08007710353697
 43.08268416717318
 43.08506428003918
 43.08645550296959
 43.08652504794534
 43.08550315451663
 43.08401759910469
 43.08280035366374
 43.082358694934
 43.08269253449452
 43.0832611080579
 43.08332448260534
 43.0824337729178
 43.08069147142154
 43.07866628019875
 43.07711381220614
 43.07664378452272
 43.07740597291054
 43.07895364040863
 43.08047057966324
 43.08126614163788
 43.08116088342027
 43.08052066952545
 43.08002444355105
 43.08033780338865
 43.08177379891017
 43.08405542041303
 43.08639301343252
 43.08792068264982
 43.08818033958974
 43.08730317007417
 43.08586166509173
 43.08457237632703
 43.08396103858586
 43.08406483486598
 43.08436616180218
 43.08410632757595
 43.08278153610611
 43.0804344354606
 43.07759731458422
 43.07502829514102
 43.07338482463976
 43.07290263632569
 43.07323378544825
 43.07364045731429
 43.07346785884997
 43.07252840515668
 43.07115287308098
 43.06998395854296
 43.06967209890544
 43.07054684944892
 43.0723727445389
 43.07440358832686
 43.0757945751072
 43.0760780670735
 43.07535409188676
 43.074157339289
 43.07317053978992
 43.07289565055618
 43.07335877106348
 43.07403502917875
 43.07414495076073
 43.07314735651034
 43.07104711655281
 43.06835247626826
 43.0658121077706
 43.06408544767162
 43.06341960582934
 43.06347692493691
 43.06351068363346
 43.06283476336915
 43.06122643101415
 43.05899463250807
 43.05677654854853
 43.05523601746548
 43.05474421622952
 43.05513665161544
 43.05575056633672
 43.05581834051895
 43.05494030464155
 43.05327859706461
 43.05142014592266
 43.05008742720521
 43.04981560916249
 43.05065591266342
 43.05207977627543
 43.05325488212623
 43.0535438626415
 43.05283993651241
 43.05155214334221
 43.05036030481482
 43.0498924892865
 43.05039388128817
 43.05153052092417
 43.05253992332216
 43.05269581967383
 43.05172987934281
 43.04992333371624
 43.04791433774132
 43.04639660079584
 43.04579661249252
 43.04601936176827
 43.04646160352401
 43.04638173328731
 43.04536971725266
 43.04355951232655
 43.04151623561138
 43.03996261489842
 43.03945895806564
 43.04009715356024
 43.04138464464867
 43.04250033491219
 43.04279268667677
 43.04213479761835
 43.04092478355464
 43.03983926929267
 43.03950856197533
 43.04019083192534
 43.0415687764677
 43.04287402585969
 43.04334093267917
 43.04265426328693
 43.04107482439627
 43.03925956894249
 43.03795759125983
 43.03767732753833
 43.03840628793337
 43.03958663212151
 43.04046478995728
 43.04057666351825
 43.03999151081317
 43.03921704496527
 43.03892853773554
 43.0396547446136
 43.04148229608985
 43.0439353355996
 43.04621123948053
 43.04766769599272
 43.04818975023107
 43.04821040314517
 43.04847118260561
 43.04968730017884
 43.05220457821424
 43.05577510444591
 43.0596573575924
 43.06305682081273
 43.06558637387039
 43.06742159206618
 43.06914328986232
 43.07143637448985
 43.07474874610157
 43.07900272281461
 43.08356376093502
 43.08759016452185
 43.0905352433611
 43.09241630788558
 43.09373054791642
 43.09517370573599
 43.09730685040685
 43.10024361503249
 43.10351319638514
 43.10628117827789
 43.10783513615625
 43.10796347414376
 43.10698669120031
 43.10552726539429
 43.10419258869792
 43.10325118694114
 43.10241295670176
 43.10092213018137
 43.09799996257843
 43.09332062362704
 43.08717241629739
 43.08028316113473
 43.07349787827148
 43.06743461468732
 43.06219960482773
 43.05733968118334
 43.05216132305213
 43.04622084265865
 43.03960892057845
 43.03288588989234
 43.02680812044947
 43.02199703382811
 43.01862661048754
 43.01627896843495
 43.01415376007337
 43.01155226319883
 43.00826960789473
 43.00464404770365
 43.00133750921047
 42.99902100556566
 42.99804728183459
 42.99821163515806
 42.99880397168997
 42.99901327503435
 42.99839911760564
 42.99708124350681
 42.99560423424565
 42.99465113021685
 42.9947211495586
 42.99583841846841
 42.99746902662884
 42.99880612466579
 42.99926361823202
 42.99879739702242
 42.99787572396961
 42.99722077489137
 42.99747674233355
 42.99888109176127
 43.00108364214306
 43.00331472012115
 43.00485740727738
 43.00546290044332
 43.00542672174135
 43.00538123649484
 43.00598772686034
 43.00761743957717
 43.01011174728495
 43.01281531826554
 43.01495570388226
 43.01610406222397
 43.0163709413502
 43.01628317635932
 43.01650899143433
 43.01754425337651
 43.01941897332063
 43.02159589834373
 43.02323413706323
 43.02367775631475
 43.02279101498063
 43.0209562755415
 43.01885368963848
 43.01716298223991
 43.01623348916071
 43.01584864559772
 43.01531136534343
 43.01386926134492
 43.01115897288593
 43.00736124466497
 43.00307918949255
 42.99912021666953
 42.99628249436341
 42.9952156385532
 42.99651195125173
 43.00108055222486
 43.01052689760596
 43.02717272128467
 43.05364999475678
 43.0922455122893
 43.14415816059361
 43.2088396190389
 43.28373425678947
 43.36468051526146
 43.44680786556395
 43.52542374301117
 43.596552462475
 43.65714436651801
 43.70506453765539
 43.73890637174925
 43.75776347986881
 43.7612105202192
 43.749547770763
 43.72402236126908
 43.6867519592624
 43.64039294524913
 43.58773782847795
 43.53132511251294
 43.47312079583507
 43.41444928616828
 43.35628345248668
 43.29967247745024
 43.24594937872616
 43.19662063953781
 43.15309143360457
 43.11635588767613
 43.08671420764627
 43.06366956434322
 43.04618383489726
 43.03319349860553
 43.02401468339577
 43.01840231851571
 43.01634991098617
 43.01780093845788
 43.02235423141203
 43.02907786688368
 43.03663153162449
 43.04371811803014
 43.04954947483413
 43.0540002822799
 43.05744383320389
 43.06044896364428
 43.06344573626665
 43.06643798755444
 43.06894904732647
 43.07032874979873
 43.07022244282519
 43.06883412195113
 43.06684959678891
 43.06515808471339
 43.06451779733384
 43.06523793038232
 43.067025632224
 43.06918777479486
 43.07111281100156
 43.07266077288377
 43.07420385744435
 43.07639883517225
 43.07987423918677
 43.08491358899284
 43.09123496720898
 43.09806895637
 43.10458069086815
 43.11033638856804
 43.11547407144806
 43.12055343972635
 43.12626224242767
 43.13308849651518
 43.14102976335963
 43.14952526849186
 43.15776195770062
 43.16517560123883
 43.17175954423153
 43.17801279919404
 43.18466344238636
 43.19233108376297
 43.20120724681797
 43.2108980496828
 43.2206196572139
 43.22968039789641
 43.23788575940825
 43.2456048198024
 43.25356038334717
 43.26250914230332
 43.27289601585459
 43.28459553763188
 43.29695615281953
 43.30921024295311
 43.32095386032648
 43.33233695255705
 43.34392117948746
 43.35638553733867
 43.37019999278821
 43.38533538759081
 43.40118446252269
 43.41684962592128
 43.43163585018454
 43.44536774003873
 43.45835677267426
 43.471149300596
 43.48421261030905
 43.49762505378556
 43.51090320742325
 43.52316791371938
 43.53361423276141
 43.54192792572317
 43.54836074599449
 43.55351801931656
 43.55804615770562
 43.56231260589865
 43.56616793705124
 43.56898598124109
 43.5700607453325
 43.56909039545425
 43.5663829607302
 43.5627152220306
 43.5590194484085
 43.55603406197489
 43.55399454621568
 43.55253568817509
 43.55097105551948
 43.54880459267627
 43.54607928883645
 43.54335484633776
 43.54143500122189
 43.54102125843359
 43.5423775744902
 43.54514005621213
 43.54847427777794
 43.55156048443421
 43.55405228701372
 43.55618873878778
 43.55858118385061
 43.56187163127411
 43.56638404615913
 43.57186424430118
 43.57749541439647
 43.58228006246224
 43.58554264440976
 43.58718288737966
 43.58757925973666
 43.58729844009992
 43.58675383513275
 43.58589603970202
 43.58410242581916
 43.58043936963276
 43.57417294000898
 43.56513908317611
 43.55375007279058
 43.54074463501168
 43.52685731981793
 43.5124845930815
 43.49746600202415
 43.48119328666625
 43.46306797810426
 43.44296862311788
 43.42138175544805
 43.39920016014385
 43.37739038199935
 43.35664618380208
 43.3371079192091
 43.31834098132643
 43.29969423568872
 43.28080770903632
 43.26188032395281
 43.24357534709345
 43.22672380310469
 43.21198124464411
 43.19951469044899
 43.18887297883071
 43.17922136017152
 43.1698432776786
 43.16052850724563
 43.15160077363086
 43.1436735671218
 43.13731854150711
 43.13273768253823
 43.12955037541317
 43.12689476105881
 43.12387511489236
 43.1200405212991
 43.11554991197367
 43.11100348374625
 43.10712539992353
 43.10442005836476
 43.10288483886336
 43.10195887542704
 43.10084100302605
 43.09898908013845
 43.09641894778822
 43.09364516630576
 43.09140318661396
 43.09031432709379
 43.09057204057221
 43.09179491936392
 43.09323296490674
 43.0942500004097
 43.0947078497768
 43.09499474828574
 43.09578280843151
 43.09770451842275
 43.10103526086881
 43.10547607628688
 43.11022919354752
 43.11441829965572
 43.1175650104714
 43.11977482236279
 43.12158949527161
 43.12367945423105
 43.12650319207516
 43.13001815157711
 43.13362147742495
 43.13646220759063
 43.13794756144915
 43.13805766314096
 43.13729703986576
 43.13641687371572
 43.13607352019092
 43.13650260610517
 43.13734817686247
 43.13784039064586
 43.13727580321979
 43.13544105172021
 43.13268907283256
 43.12971470968896
 43.12722473822354
 43.12561199838523
 43.12472568710449
 43.12392010604479
 43.12245162864038
 43.119955978872
 43.11664333395643
 43.11314562120287
 43.11019975757652
 43.10831251836245
 43.10748152198151
 43.10712798628141
 43.10638930285836
 43.10462294285539
 43.10174130213554
 43.09818592048184
 43.09466604707654
 43.09183059000711
 43.08994450230843
 43.08869593778202
 43.08734018067591
 43.08516455575902
